Interval=	0.001 s
ExcelDateTime=	4.3161461872426349e+004	3/2/2018 11:05:05.777636
TimeFormat=	StartOfBlock
DateFormat=	
ChannelTitle=	Channel 2	Channel 3
Range=	0.8691 V	10.000 V
0	NaN	0.031
0.001	NaN	0.023
0.002	NaN	0.015
0.003	NaN	0.009
0.004	NaN	0.003
0.005	NaN	-0.001
0.006	NaN	-0.002
0.007	NaN	0.003
0.008	NaN	0.005
0.009	NaN	0.011
0.01	NaN	0.018
0.011	NaN	0.021
0.012	NaN	0.025
0.013	0.0437	0.025
0.014	0.0437	0.023
0.015	0.0437	0.018
0.016	0.0437	0.011
0.017	0.0437	0.003
0.018	0.0437	-0.005
0.019	0.0437	-0.010
0.02	0.0437	-0.017
0.021	0.0437	-0.019
0.022	0.0437	-0.019
0.023	0.0437	-0.017
0.024	0.0437	-0.011
0.025	0.0437	-0.005
0.026	0.0437	0.001
0.027	0.0437	0.006
0.028	0.0437	0.011
0.029	0.0437	0.013
0.03	0.0420	0.013
0.031	0.0384	0.012
0.032	0.0384	0.006
0.033	0.0384	-0.001
0.034	0.0384	-0.007
0.035	0.0384	-0.013
0.036	0.0384	-0.019
0.037	0.0384	-0.023
0.038	0.0384	-0.025
0.039	0.0384	-0.025
0.04	0.0384	-0.018
0.041	0.0384	-0.013
0.042	0.0384	-0.007
0.043	0.0384	0.002
0.044	0.0384	0.006
0.045	0.0384	0.011
0.046	0.0383	0.013
0.047	0.0381	0.012
0.048	0.0381	0.008
0.049	0.0381	0.002
0.05	0.0381	-0.004
0.051	0.0381	-0.011
0.052	0.0381	-0.017
0.053	0.0381	-0.022
0.054	0.0381	-0.026
0.055	0.0381	-0.024
0.056	0.0381	-0.022
0.057	0.0381	-0.016
0.058	0.0381	-0.009
0.059	0.0381	-0.003
0.06	0.0381	0.003
0.061	0.0381	0.008
0.062	0.0381	0.011
0.063	0.0378	0.012
0.064	0.0372	0.011
0.065	0.0372	0.006
0.066	0.0372	-0.001
0.067	0.0372	-0.005
0.068	0.0372	-0.013
0.069	0.0372	-0.018
0.07	0.0372	-0.022
0.071	0.0372	-0.024
0.072	0.0372	-0.024
0.073	0.0372	-0.021
0.074	0.0372	-0.016
0.075	0.0372	-0.010
0.076	0.0372	-0.003
0.077	0.0372	0.005
0.078	0.0372	0.008
0.079	0.0372	0.013
0.08	0.0373	0.014
0.081	0.0375	0.012
0.082	0.0375	0.006
0.083	0.0375	-0.001
0.084	0.0375	-0.007
0.085	0.0375	-0.014
0.086	0.0375	-0.018
0.087	0.0375	-0.023
0.088	0.0375	-0.023
0.089	0.0375	-0.022
0.09	0.0375	-0.018
0.091	0.0375	-0.013
0.092	0.0375	-0.007
0.093	0.0375	-0.000
0.094	0.0375	0.006
0.095	0.0375	0.012
0.096	0.0368	0.015
0.097	0.0353	0.015
0.098	0.0353	0.011
0.099	0.0353	0.005
0.1	0.0353	-0.000
0.101	0.0353	-0.007
0.102	0.0353	-0.013
0.103	0.0353	-0.018
0.104	0.0353	-0.019
0.105	0.0353	-0.021
0.106	0.0353	-0.020
0.107	0.0353	-0.014
0.108	0.0353	-0.008
0.109	0.0353	-0.002
0.11	0.0353	0.004
0.111	0.0353	0.008
0.112	0.0353	0.011
0.113	0.0365	0.013
0.114	0.0388	0.013
0.115	0.0388	0.007
0.116	0.0388	0.001
0.117	0.0388	-0.004
0.118	0.0388	-0.011
0.119	0.0388	-0.016
0.12	0.0388	-0.020
0.121	0.0388	-0.022
0.122	0.0388	-0.024
0.123	0.0388	-0.019
0.124	0.0388	-0.014
0.125	0.0388	-0.008
0.126	0.0388	-0.001
0.127	0.0388	0.004
0.128	0.0388	0.011
0.129	0.0388	0.015
0.13	0.0384	0.016
0.131	0.0378	0.013
0.132	0.0378	0.007
0.133	0.0378	0.002
0.134	0.0378	-0.005
0.135	0.0378	-0.010
0.136	0.0378	-0.016
0.137	0.0378	-0.021
0.138	0.0378	-0.022
0.139	0.0378	-0.022
0.14	0.0378	-0.016
0.141	0.0378	-0.010
0.142	0.0378	-0.006
0.143	0.0378	0.003
0.144	0.0378	0.008
0.145	0.0378	0.013
0.146	0.0381	0.015
0.147	0.0388	0.015
0.148	0.0388	0.010
0.149	0.0388	0.004
0.15	0.0388	0.001
0.151	0.0388	-0.002
0.152	0.0388	-0.004
0.153	0.0388	-0.004
0.154	0.0388	-0.004
0.155	0.0388	-0.004
0.156	0.0388	-0.002
0.157	0.0388	0.001
0.158	0.0388	0.003
0.159	0.0388	0.009
0.16	0.0388	0.016
0.161	0.0388	0.025
0.162	0.0388	0.034
0.163	0.0432	0.037
0.164	0.0522	0.033
0.165	0.0522	0.030
0.166	0.0522	0.025
0.167	0.0522	0.017
0.168	0.0522	0.008
0.169	0.0522	0.000
0.17	0.0522	-0.008
0.171	0.0522	-0.013
0.172	0.0522	-0.015
0.173	0.0522	-0.015
0.174	0.0522	-0.011
0.175	0.0522	-0.007
0.176	0.0522	-0.001
0.177	0.0522	0.004
0.178	0.0522	0.009
0.179	0.0470	0.012
0.18	0.0366	0.012
0.181	0.0366	0.010
0.182	0.0366	0.004
0.183	0.0366	-0.001
0.184	0.0366	-0.007
0.185	0.0366	-0.014
0.186	0.0366	-0.018
0.187	0.0366	-0.023
0.188	0.0366	-0.024
0.189	0.0366	-0.022
0.19	0.0366	-0.018
0.191	0.0366	-0.013
0.192	0.0366	-0.006
0.193	0.0366	0.002
0.194	0.0366	0.007
0.195	0.0366	0.012
0.196	0.0366	0.016
0.197	0.0366	0.015
0.198	0.0366	0.012
0.199	0.0366	0.006
0.2	0.0366	0.000
0.201	0.0366	-0.006
0.202	0.0366	-0.012
0.203	0.0366	-0.017
0.204	0.0366	-0.021
0.205	0.0366	-0.021
0.206	0.0366	-0.021
0.207	0.0366	-0.015
0.208	0.0366	-0.008
0.209	0.0366	-0.002
0.21	0.0366	0.003
0.211	0.0366	0.008
0.212	0.0366	0.013
0.213	0.0366	0.014
0.214	0.0369	0.014
0.215	0.0375	0.010
0.216	0.0375	0.004
0.217	0.0375	-0.003
0.218	0.0375	-0.009
0.219	0.0375	-0.014
0.22	0.0375	-0.019
0.221	0.0375	-0.023
0.222	0.0375	-0.022
0.223	0.0375	-0.020
0.224	0.0375	-0.016
0.225	0.0375	-0.011
0.226	0.0375	-0.003
0.227	0.0375	0.004
0.228	0.0375	0.009
0.229	0.0375	0.015
0.23	0.0377	0.016
0.231	0.0381	0.014
0.232	0.0381	0.008
0.233	0.0381	0.003
0.234	0.0381	-0.004
0.235	0.0381	-0.010
0.236	0.0381	-0.015
0.237	0.0381	-0.021
0.238	0.0381	-0.022
0.239	0.0381	-0.021
0.24	0.0381	-0.018
0.241	0.0381	-0.011
0.242	0.0381	-0.006
0.243	0.0381	0.001
0.244	0.0381	0.007
0.245	0.0381	0.012
0.246	0.0381	0.013
0.247	0.0551	0.013
0.248	0.0891	0.009
0.249	0.0891	0.003
0.25	0.0891	-0.004
0.251	0.0891	-0.013
0.252	0.0891	-0.018
0.253	0.0891	-0.022
0.254	0.0891	-0.022
0.255	0.0891	-0.017
0.256	0.0891	-0.007
0.257	0.0891	0.011
0.258	0.0891	0.030
0.259	0.0891	0.051
0.26	0.0891	0.067
0.261	0.0936	0.073
0.262	0.1028	0.069
0.263	0.1028	0.058
0.264	0.1028	0.044
0.265	0.1028	0.030
0.266	0.1028	0.017
0.267	0.1028	0.004
0.268	0.1028	-0.008
0.269	0.1028	-0.017
0.27	0.1028	-0.024
0.271	0.1028	-0.028
0.272	0.1028	-0.030
0.273	0.1028	-0.029
0.274	0.1028	-0.022
0.275	0.1028	-0.016
0.276	0.1028	-0.009
0.277	0.1028	-0.004
0.278	0.1028	0.002
0.279	0.1028	0.006
0.28	0.0817	0.007
0.281	0.0394	0.007
0.282	0.0394	0.002
0.283	0.0394	-0.004
0.284	0.0394	-0.008
0.285	0.0394	-0.015
0.286	0.0394	-0.020
0.287	0.0394	-0.022
0.288	0.0394	-0.025
0.289	0.0394	-0.025
0.29	0.0394	-0.021
0.291	0.0394	-0.016
0.292	0.0394	-0.010
0.293	0.0394	-0.001
0.294	0.0394	0.005
0.295	0.0394	0.010
0.296	0.0394	0.014
0.297	0.0385	0.016
0.298	0.0369	0.012
0.299	0.0369	0.008
0.3	0.0369	0.002
0.301	0.0369	-0.006
0.302	0.0369	-0.012
0.303	0.0369	-0.017
0.304	0.0369	-0.021
0.305	0.0369	-0.021
0.306	0.0369	-0.020
0.307	0.0369	-0.015
0.308	0.0369	-0.009
0.309	0.0369	-0.003
0.31	0.0369	0.003
0.311	0.0369	0.007
0.312	0.0369	0.013
0.313	0.0373	0.013
0.314	0.0381	0.012
0.315	0.0381	0.008
0.316	0.0381	0.002
0.317	0.0381	-0.004
0.318	0.0381	-0.010
0.319	0.0381	-0.015
0.32	0.0381	-0.020
0.321	0.0381	-0.023
0.322	0.0381	-0.025
0.323	0.0381	-0.021
0.324	0.0381	-0.014
0.325	0.0381	-0.009
0.326	0.0381	-0.003
0.327	0.0381	0.003
0.328	0.0381	0.008
0.329	0.0381	0.012
0.33	0.0366	0.013
0.331	0.0334	0.012
0.332	0.0334	0.008
0.333	0.0334	0.003
0.334	0.0334	-0.003
0.335	0.0334	-0.010
0.336	0.0334	-0.015
0.337	0.0334	-0.019
0.338	0.0334	-0.019
0.339	0.0334	-0.020
0.34	0.0334	-0.016
0.341	0.0334	-0.012
0.342	0.0334	-0.007
0.343	0.0334	0.000
0.344	0.0334	0.007
0.345	0.0334	0.011
0.346	0.0350	0.014
0.347	0.0381	0.013
0.348	0.0381	0.012
0.349	0.0381	0.007
0.35	0.0381	0.000
0.351	0.0381	-0.007
0.352	0.0381	-0.012
0.353	0.0381	-0.018
0.354	0.0381	-0.020
0.355	0.0381	-0.022
0.356	0.0381	-0.022
0.357	0.0381	-0.016
0.358	0.0381	-0.011
0.359	0.0381	-0.003
0.36	0.0381	0.003
0.361	0.0381	0.009
0.362	0.0381	0.013
0.363	0.0381	0.016
0.364	0.0375	0.017
0.365	0.0362	0.012
0.366	0.0362	0.006
0.367	0.0362	0.000
0.368	0.0362	-0.007
0.369	0.0362	-0.012
0.37	0.0362	-0.017
0.371	0.0362	-0.018
0.372	0.0362	-0.020
0.373	0.0362	-0.017
0.374	0.0362	-0.012
0.375	0.0362	-0.005
0.376	0.0362	0.002
0.377	0.0362	0.006
0.378	0.0362	0.011
0.379	0.0362	0.014
0.38	0.0360	0.016
0.381	0.0356	0.014
0.382	0.0356	0.010
0.383	0.0356	0.003
0.384	0.0356	-0.003
0.385	0.0356	-0.009
0.386	0.0356	-0.014
0.387	0.0356	-0.019
0.388	0.0356	-0.019
0.389	0.0356	-0.020
0.39	0.0356	-0.016
0.391	0.0356	-0.010
0.392	0.0356	-0.003
0.393	0.0356	0.003
0.394	0.0356	0.009
0.395	0.0356	0.014
0.396	0.0356	0.016
0.397	0.0356	0.016
0.398	0.0356	0.014
0.399	0.0356	0.008
0.4	0.0356	0.004
0.401	0.0356	-0.003
0.402	0.0356	-0.009
0.403	0.0356	-0.014
0.404	0.0356	-0.018
0.405	0.0356	-0.019
0.406	0.0356	-0.019
0.407	0.0356	-0.014
0.408	0.0356	-0.010
0.409	0.0356	-0.004
0.41	0.0356	0.004
0.411	0.0356	0.008
0.412	0.0356	0.014
0.413	0.0371	0.016
0.414	0.0400	0.016
0.415	0.0400	0.013
0.416	0.0400	0.007
0.417	0.0400	0.002
0.418	0.0400	-0.005
0.419	0.0400	-0.011
0.42	0.0400	-0.017
0.421	0.0400	-0.020
0.422	0.0400	-0.022
0.423	0.0400	-0.024
0.424	0.0400	-0.024
0.425	0.0400	-0.021
0.426	0.0400	-0.015
0.427	0.0400	-0.006
0.428	0.0400	0.004
0.429	0.0477	0.014
0.43	0.0631	0.013
0.431	0.0631	-0.001
0.432	0.0631	-0.020
0.433	0.0631	-0.028
0.434	0.0631	-0.025
0.435	0.0631	-0.014
0.436	0.0631	0.000
0.437	0.0631	0.011
0.438	0.0631	0.021
0.439	0.0631	0.025
0.44	0.0631	0.027
0.441	0.0631	0.030
0.442	0.0631	0.031
0.443	0.0631	0.034
0.444	0.0631	0.034
0.445	0.0631	0.035
0.446	0.0571	0.035
0.447	0.0450	0.033
0.448	0.0450	0.028
0.449	0.0450	0.022
0.45	0.0450	0.015
0.451	0.0450	0.007
0.452	0.0450	0.000
0.453	0.0450	-0.005
0.454	0.0450	-0.010
0.455	0.0450	-0.009
0.456	0.0450	-0.009
0.457	0.0450	-0.006
0.458	0.0450	-0.001
0.459	0.0450	0.006
0.46	0.0450	0.012
0.461	0.0450	0.017
0.462	0.0450	0.022
0.463	0.0432	0.023
0.464	0.0397	0.022
0.465	0.0397	0.019
0.466	0.0397	0.012
0.467	0.0397	0.005
0.468	0.0397	-0.002
0.469	0.0397	-0.009
0.47	0.0397	-0.013
0.471	0.0397	-0.014
0.472	0.0397	-0.017
0.473	0.0397	-0.015
0.474	0.0397	-0.010
0.475	0.0397	-0.006
0.476	0.0397	0.001
0.477	0.0397	0.007
0.478	0.0397	0.012
0.479	0.0397	0.016
0.48	0.0385	0.016
0.481	0.0362	0.014
0.482	0.0362	0.009
0.483	0.0362	0.004
0.484	0.0362	-0.005
0.485	0.0362	-0.010
0.486	0.0362	-0.014
0.487	0.0362	-0.019
0.488	0.0362	-0.020
0.489	0.0362	-0.019
0.49	0.0362	-0.017
0.491	0.0362	-0.011
0.492	0.0362	-0.004
0.493	0.0362	0.002
0.494	0.0362	0.007
0.495	0.0362	0.011
0.496	0.0420	0.013
0.497	0.0534	0.010
0.498	0.0534	0.005
0.499	0.0534	-0.002
0.5	0.0534	-0.009
0.501	0.0534	-0.018
0.502	0.0534	-0.027
0.503	0.0534	-0.032
0.504	0.0534	-0.034
0.505	0.0534	-0.032
0.506	0.0534	-0.026
0.507	0.0534	-0.017
0.508	0.0534	-0.007
0.509	0.0534	0.001
0.51	0.0534	0.010
0.511	0.0534	0.016
0.512	0.0534	0.020
0.513	0.0534	0.021
0.514	0.0534	0.021
0.515	0.0534	0.016
0.516	0.0534	0.010
0.517	0.0534	0.003
0.518	0.0534	-0.006
0.519	0.0534	-0.014
0.52	0.0534	-0.023
0.521	0.0534	-0.029
0.522	0.0534	-0.030
0.523	0.0534	-0.028
0.524	0.0534	-0.021
0.525	0.0534	-0.012
0.526	0.0534	-0.001
0.527	0.0534	0.008
0.528	0.0534	0.018
0.529	0.0534	0.023
0.53	0.0555	0.025
0.531	0.0597	0.024
0.532	0.0597	0.017
0.533	0.0597	0.009
0.534	0.0597	-0.002
0.535	0.0597	-0.013
0.536	0.0597	-0.023
0.537	0.0597	-0.031
0.538	0.0597	-0.034
0.539	0.0597	-0.035
0.54	0.0597	-0.029
0.541	0.0597	-0.021
0.542	0.0597	-0.012
0.543	0.0597	0.000
0.544	0.0597	0.011
0.545	0.0597	0.019
0.546	0.0597	0.024
0.547	0.0595	0.026
0.548	0.0591	0.021
0.549	0.0591	0.013
0.55	0.0591	0.005
0.551	0.0591	-0.007
0.552	0.0591	-0.017
0.553	0.0591	-0.024
0.554	0.0591	-0.030
0.555	0.0591	-0.033
0.556	0.0591	-0.032
0.557	0.0591	-0.024
0.558	0.0591	-0.016
0.559	0.0591	-0.004
0.56	0.0591	0.007
0.561	0.0591	0.016
0.562	0.0591	0.023
0.563	0.0594	0.027
0.564	0.0600	0.026
0.565	0.0600	0.021
0.566	0.0600	0.012
0.567	0.0600	0.001
0.568	0.0600	-0.010
0.569	0.0600	-0.019
0.57	0.0600	-0.028
0.571	0.0600	-0.032
0.572	0.0600	-0.033
0.573	0.0600	-0.031
0.574	0.0600	-0.022
0.575	0.0600	-0.012
0.576	0.0600	-0.001
0.577	0.0600	0.009
0.578	0.0600	0.019
0.579	0.0600	0.025
0.58	0.0578	0.028
0.581	0.0534	0.027
0.582	0.0534	0.019
0.583	0.0534	0.010
0.584	0.0534	0.001
0.585	0.0534	-0.010
0.586	0.0534	-0.017
0.587	0.0534	-0.022
0.588	0.0534	-0.025
0.589	0.0534	-0.025
0.59	0.0534	-0.019
0.591	0.0534	-0.013
0.592	0.0534	-0.007
0.593	0.0534	-0.000
0.594	0.0534	0.004
0.595	0.0534	0.010
0.596	0.0472	0.013
0.597	0.0347	0.013
0.598	0.0347	0.011
0.599	0.0347	0.007
0.6	0.0347	0.000
0.601	0.0347	-0.007
0.602	0.0347	-0.012
0.603	0.0347	-0.016
0.604	0.0347	-0.020
0.605	0.0347	-0.020
0.606	0.0347	-0.019
0.607	0.0347	-0.014
0.608	0.0347	-0.007
0.609	0.0347	-0.001
0.61	0.0347	0.005
0.611	0.0347	0.010
0.612	0.0347	0.015
0.613	0.0455	0.017
0.614	0.0672	0.016
0.615	0.0672	0.011
0.616	0.0672	0.005
0.617	0.0672	-0.000
0.618	0.0672	-0.008
0.619	0.0672	-0.014
0.62	0.0672	-0.019
0.621	0.0672	-0.022
0.622	0.0672	-0.024
0.623	0.0672	-0.021
0.624	0.0672	-0.016
0.625	0.0672	-0.011
0.626	0.0672	0.000
0.627	0.0672	0.012
0.628	0.0672	0.026
0.629	0.0672	0.037
0.63	0.0672	0.043
0.631	0.0597	0.043
0.632	0.0447	0.038
0.633	0.0447	0.033
0.634	0.0447	0.027
0.635	0.0447	0.023
0.636	0.0447	0.022
0.637	0.0447	0.018
0.638	0.0447	0.009
0.639	0.0447	0.002
0.64	0.0447	-0.001
0.641	0.0447	0.002
0.642	0.0447	0.005
0.643	0.0447	0.008
0.644	0.0447	0.012
0.645	0.0446	0.015
0.646	0.0444	0.013
0.647	0.0444	0.011
0.648	0.0444	0.008
0.649	0.0444	0.001
0.65	0.0444	-0.006
0.651	0.0444	-0.013
0.652	0.0444	-0.020
0.653	0.0444	-0.026
0.654	0.0444	-0.028
0.655	0.0444	-0.029
0.656	0.0444	-0.029
0.657	0.0444	-0.023
0.658	0.0444	-0.018
0.659	0.0444	-0.011
0.66	0.0444	-0.003
0.661	0.0444	0.003
0.662	0.0444	0.008
0.663	0.0420	0.011
0.664	0.0372	0.009
0.665	0.0372	0.006
0.666	0.0372	0.001
0.667	0.0372	-0.005
0.668	0.0372	-0.011
0.669	0.0372	-0.017
0.67	0.0372	-0.022
0.671	0.0372	-0.025
0.672	0.0372	-0.024
0.673	0.0372	-0.022
0.674	0.0372	-0.017
0.675	0.0372	-0.010
0.676	0.0372	-0.003
0.677	0.0372	0.002
0.678	0.0372	0.007
0.679	0.0372	0.012
0.68	0.0372	0.013
0.681	0.0372	0.012
0.682	0.0372	0.006
0.683	0.0372	0.000
0.684	0.0372	-0.006
0.685	0.0372	-0.013
0.686	0.0372	-0.018
0.687	0.0372	-0.023
0.688	0.0372	-0.024
0.689	0.0372	-0.024
0.69	0.0372	-0.019
0.691	0.0372	-0.013
0.692	0.0372	-0.007
0.693	0.0372	-0.001
0.694	0.0372	0.005
0.695	0.0372	0.009
0.696	0.0372	0.012
0.697	0.0373	0.013
0.698	0.0375	0.009
0.699	0.0375	0.003
0.7	0.0375	-0.003
0.701	0.0375	-0.011
0.702	0.0375	-0.016
0.703	0.0375	-0.020
0.704	0.0375	-0.024
0.705	0.0375	-0.025
0.706	0.0375	-0.024
0.707	0.0375	-0.020
0.708	0.0375	-0.015
0.709	0.0375	-0.007
0.71	0.0375	-0.001
0.711	0.0375	0.004
0.712	0.0375	0.010
0.713	0.0371	0.011
0.714	0.0362	0.010
0.715	0.0362	0.007
0.716	0.0362	-0.000
0.717	0.0362	-0.006
0.718	0.0362	-0.013
0.719	0.0362	-0.018
0.72	0.0362	-0.022
0.721	0.0362	-0.024
0.722	0.0362	-0.025
0.723	0.0362	-0.023
0.724	0.0362	-0.016
0.725	0.0362	-0.012
0.726	0.0362	-0.004
0.727	0.0362	0.001
0.728	0.0362	0.005
0.729	0.0362	0.009
0.73	0.0381	0.009
0.731	0.0419	0.008
0.732	0.0419	0.003
0.733	0.0419	-0.003
0.734	0.0419	-0.009
0.735	0.0419	-0.016
0.736	0.0419	-0.020
0.737	0.0419	-0.028
0.738	0.0419	-0.033
0.739	0.0419	-0.033
0.74	0.0419	-0.028
0.741	0.0419	-0.023
0.742	0.0419	-0.017
0.743	0.0419	-0.009
0.744	0.0419	-0.002
0.745	0.0419	0.005
0.746	0.0400	0.010
0.747	0.0362	0.009
0.748	0.0362	0.007
0.749	0.0362	0.001
0.75	0.0362	-0.004
0.751	0.0362	-0.011
0.752	0.0362	-0.018
0.753	0.0362	-0.023
0.754	0.0362	-0.026
0.755	0.0362	-0.026
0.756	0.0362	-0.026
0.757	0.0362	-0.019
0.758	0.0362	-0.014
0.759	0.0362	-0.009
0.76	0.0362	-0.002
0.761	0.0362	0.005
0.762	0.0362	0.009
0.763	0.0535	0.011
0.764	0.0881	0.010
0.765	0.0881	0.006
0.766	0.0881	0.000
0.767	0.0881	-0.005
0.768	0.0881	-0.012
0.769	0.0881	-0.018
0.77	0.0881	-0.023
0.771	0.0881	-0.026
0.772	0.0881	-0.025
0.773	0.0881	-0.023
0.774	0.0881	-0.018
0.775	0.0881	-0.012
0.776	0.0881	-0.004
0.777	0.0881	0.002
0.778	0.0881	0.007
0.779	0.0881	0.013
0.78	0.0881	0.017
0.781	0.0881	0.021
0.782	0.0881	0.025
0.783	0.0881	0.031
0.784	0.0881	0.041
0.785	0.0881	0.051
0.786	0.0881	0.056
0.787	0.0881	0.063
0.788	0.0961	0.066
0.789	0.1122	0.066
0.79	0.1122	0.063
0.791	0.1122	0.059
0.792	0.1122	0.052
0.793	0.1122	0.045
0.794	0.1122	0.033
0.795	0.1122	0.017
0.796	0.1122	0.002
0.797	0.1122	-0.007
0.798	0.1122	-0.013
0.799	0.1122	-0.022
0.8	0.1122	-0.028
0.801	0.1122	-0.035
0.802	0.1122	-0.040
0.803	0.1122	-0.043
0.804	0.1122	-0.046
0.805	0.1122	-0.047
0.806	0.1122	-0.043
0.807	0.1122	-0.037
0.808	0.1122	-0.032
0.809	0.1122	-0.023
0.81	0.1122	-0.016
0.811	0.1122	-0.009
0.812	0.1122	-0.002
0.813	0.1122	0.000
0.814	0.0892	0.001
0.815	0.0431	-0.001
0.816	0.0431	-0.006
0.817	0.0431	-0.012
0.818	0.0431	-0.017
0.819	0.0431	-0.021
0.82	0.0431	-0.026
0.821	0.0431	-0.028
0.822	0.0431	-0.028
0.823	0.0431	-0.026
0.824	0.0431	-0.020
0.825	0.0431	-0.014
0.826	0.0431	-0.006
0.827	0.0431	0.001
0.828	0.0431	0.008
0.829	0.0431	0.013
0.83	0.0431	0.015
0.831	0.0405	0.016
0.832	0.0353	0.011
0.833	0.0353	0.003
0.834	0.0353	-0.003
0.835	0.0353	-0.010
0.836	0.0353	-0.014
0.837	0.0353	-0.017
0.838	0.0353	-0.020
0.839	0.0353	-0.020
0.84	0.0353	-0.017
0.841	0.0353	-0.011
0.842	0.0353	-0.004
0.843	0.0353	0.003
0.844	0.0353	0.007
0.845	0.0353	0.012
0.846	0.0357	0.015
0.847	0.0366	0.015
0.848	0.0366	0.012
0.849	0.0366	0.007
0.85	0.0366	0.001
0.851	0.0366	-0.006
0.852	0.0366	-0.012
0.853	0.0366	-0.016
0.854	0.0366	-0.020
0.855	0.0366	-0.022
0.856	0.0366	-0.021
0.857	0.0366	-0.017
0.858	0.0366	-0.012
0.859	0.0366	-0.004
0.86	0.0366	0.003
0.861	0.0366	0.009
0.862	0.0366	0.013
0.863	0.0369	0.015
0.864	0.0375	0.014
0.865	0.0375	0.010
0.866	0.0375	0.003
0.867	0.0375	-0.002
0.868	0.0375	-0.009
0.869	0.0375	-0.016
0.87	0.0375	-0.020
0.871	0.0375	-0.021
0.872	0.0375	-0.023
0.873	0.0375	-0.020
0.874	0.0375	-0.013
0.875	0.0375	-0.008
0.876	0.0375	-0.001
0.877	0.0375	0.005
0.878	0.0375	0.010
0.879	0.0374	0.014
0.88	0.0372	0.014
0.881	0.0372	0.013
0.882	0.0372	0.007
0.883	0.0372	0.001
0.884	0.0372	-0.006
0.885	0.0372	-0.012
0.886	0.0372	-0.016
0.887	0.0372	-0.021
0.888	0.0372	-0.023
0.889	0.0372	-0.023
0.89	0.0372	-0.021
0.891	0.0372	-0.015
0.892	0.0372	-0.009
0.893	0.0372	-0.001
0.894	0.0372	0.005
0.895	0.0372	0.012
0.896	0.0367	0.016
0.897	0.0356	0.016
0.898	0.0356	0.013
0.899	0.0356	0.006
0.9	0.0356	-0.001
0.901	0.0356	-0.007
0.902	0.0356	-0.011
0.903	0.0356	-0.016
0.904	0.0356	-0.019
0.905	0.0356	-0.020
0.906	0.0356	-0.020
0.907	0.0356	-0.014
0.908	0.0356	-0.009
0.909	0.0356	-0.002
0.91	0.0356	0.005
0.911	0.0356	0.010
0.912	0.0356	0.015
0.913	0.0364	0.017
0.914	0.0378	0.017
0.915	0.0378	0.011
0.916	0.0378	0.006
0.917	0.0378	-0.001
0.918	0.0378	-0.008
0.919	0.0378	-0.013
0.92	0.0378	-0.018
0.921	0.0378	-0.021
0.922	0.0378	-0.021
0.923	0.0378	-0.019
0.924	0.0378	-0.013
0.925	0.0378	-0.007
0.926	0.0378	0.001
0.927	0.0378	0.006
0.928	0.0378	0.013
0.929	0.0378	0.016
0.93	0.0373	0.018
0.931	0.0362	0.017
0.932	0.0362	0.012
0.933	0.0362	0.006
0.934	0.0362	-0.001
0.935	0.0362	-0.007
0.936	0.0362	-0.013
0.937	0.0362	-0.017
0.938	0.0362	-0.018
0.939	0.0362	-0.017
0.94	0.0362	-0.014
0.941	0.0362	-0.009
0.942	0.0362	-0.003
0.943	0.0362	0.003
0.944	0.0362	0.009
0.945	0.0362	0.012
0.946	0.0362	0.016
0.947	0.0368	0.016
0.948	0.0378	0.014
0.949	0.0378	0.007
0.95	0.0378	0.003
0.951	0.0378	-0.006
0.952	0.0378	-0.012
0.953	0.0378	-0.016
0.954	0.0378	-0.019
0.955	0.0378	-0.022
0.956	0.0378	-0.020
0.957	0.0378	-0.014
0.958	0.0378	-0.010
0.959	0.0378	-0.003
0.96	0.0378	0.004
0.961	0.0378	0.011
0.962	0.0378	0.015
0.963	0.0380	0.017
0.964	0.0384	0.016
0.965	0.0384	0.013
0.966	0.0384	0.007
0.967	0.0384	0.003
0.968	0.0384	-0.000
0.969	0.0384	0.001
0.97	0.0384	0.003
0.971	0.0384	0.008
0.972	0.0384	0.011
0.973	0.0384	0.011
0.974	0.0384	0.016
0.975	0.0384	0.022
0.976	0.0384	0.028
0.977	0.0384	0.038
0.978	0.0481	0.045
0.979	0.0675	0.043
0.98	0.0675	0.036
0.981	0.0675	0.028
0.982	0.0675	0.018
0.983	0.0675	0.010
0.984	0.0675	0.001
0.985	0.0675	-0.007
0.986	0.0675	-0.013
0.987	0.0675	-0.019
0.988	0.0675	-0.023
0.989	0.0675	-0.023
0.99	0.0675	-0.020
0.991	0.0675	-0.016
0.992	0.0675	-0.011
0.993	0.0675	-0.004
0.994	0.0675	0.001
0.995	0.0675	0.006
0.996	0.0675	0.009
0.997	0.0573	0.010
0.998	0.0369	0.008
0.999	0.0369	0.003
1	0.0369	-0.001
1.001	0.0369	-0.008
1.002	0.0369	-0.014
1.003	0.0369	-0.019
1.004	0.0369	-0.023
1.005	0.0369	-0.022
1.006	0.0369	-0.021
1.007	0.0369	-0.015
1.008	0.0369	-0.011
1.009	0.0369	-0.006
1.01	0.0369	0.002
1.011	0.0369	0.007
1.012	0.0369	0.012
1.013	0.0369	0.014
1.014	0.0364	0.014
1.015	0.0353	0.010
1.016	0.0353	0.004
1.017	0.0353	-0.001
1.018	0.0353	-0.008
1.019	0.0353	-0.013
1.02	0.0353	-0.018
1.021	0.0353	-0.020
1.022	0.0353	-0.021
1.023	0.0353	-0.018
1.024	0.0353	-0.012
1.025	0.0353	-0.007
1.026	0.0353	-0.001
1.027	0.0353	0.005
1.028	0.0353	0.010
1.029	0.0353	0.014
1.03	0.0338	0.015
1.031	0.0306	0.012
1.032	0.0306	0.006
1.033	0.0306	-0.001
1.034	0.0306	-0.008
1.035	0.0306	-0.013
1.036	0.0306	-0.015
1.037	0.0306	-0.016
1.038	0.0306	-0.014
1.039	0.0306	-0.012
1.04	0.0306	-0.007
1.041	0.0306	-0.002
1.042	0.0306	0.004
1.043	0.0306	0.007
1.044	0.0306	0.009
1.045	0.0367	0.010
1.046	0.0487	0.008
1.047	0.0487	0.006
1.048	0.0487	0.002
1.049	0.0487	-0.007
1.05	0.0487	-0.013
1.051	0.0487	-0.019
1.052	0.0487	-0.025
1.053	0.0487	-0.030
1.054	0.0487	-0.035
1.055	0.0487	-0.038
1.056	0.0487	-0.038
1.057	0.0487	-0.033
1.058	0.0487	-0.026
1.059	0.0487	-0.019
1.06	0.0487	-0.011
1.061	0.0487	-0.006
1.062	0.0487	0.001
1.063	0.0487	0.004
1.064	0.0447	0.004
1.065	0.0366	0.002
1.066	0.0366	-0.003
1.067	0.0366	-0.009
1.068	0.0366	-0.016
1.069	0.0366	-0.020
1.07	0.0366	-0.025
1.071	0.0366	-0.027
1.072	0.0366	-0.026
1.073	0.0366	-0.023
1.074	0.0366	-0.018
1.075	0.0366	-0.012
1.076	0.0366	-0.004
1.077	0.0366	0.003
1.078	0.0366	0.010
1.079	0.0354	0.014
1.08	0.0331	0.014
1.081	0.0331	0.013
1.082	0.0331	0.008
1.083	0.0331	0.003
1.084	0.0331	-0.003
1.085	0.0331	-0.008
1.086	0.0331	-0.014
1.087	0.0331	-0.018
1.088	0.0331	-0.019
1.089	0.0331	-0.019
1.09	0.0331	-0.015
1.091	0.0331	-0.009
1.092	0.0331	-0.005
1.093	0.0331	0.003
1.094	0.0331	0.010
1.095	0.0331	0.013
1.096	0.0341	0.016
1.097	0.0359	0.016
1.098	0.0359	0.014
1.099	0.0359	0.007
1.1	0.0359	0.003
1.101	0.0359	-0.004
1.102	0.0359	-0.009
1.103	0.0359	-0.014
1.104	0.0359	-0.019
1.105	0.0359	-0.019
1.106	0.0359	-0.019
1.107	0.0359	-0.014
1.108	0.0359	-0.008
1.109	0.0359	-0.001
1.11	0.0359	0.006
1.111	0.0359	0.011
1.112	0.0359	0.016
1.113	0.0359	0.017
1.114	0.0356	0.017
1.115	0.0350	0.013
1.116	0.0350	0.007
1.117	0.0350	0.002
1.118	0.0350	-0.006
1.119	0.0350	-0.011
1.12	0.0350	-0.016
1.121	0.0350	-0.018
1.122	0.0350	-0.018
1.123	0.0350	-0.015
1.124	0.0350	-0.009
1.125	0.0350	-0.005
1.126	0.0350	0.002
1.127	0.0350	0.008
1.128	0.0350	0.013
1.129	0.0350	0.017
1.13	0.0429	0.018
1.131	0.0587	0.017
1.132	0.0587	0.010
1.133	0.0587	0.004
1.134	0.0587	-0.003
1.135	0.0587	-0.009
1.136	0.0587	-0.014
1.137	0.0587	-0.017
1.138	0.0587	-0.019
1.139	0.0587	-0.020
1.14	0.0587	-0.015
1.141	0.0587	-0.011
1.142	0.0587	-0.005
1.143	0.0587	0.003
1.144	0.0587	0.008
1.145	0.0587	0.014
1.146	0.0587	0.017
1.147	0.0587	0.016
1.148	0.0587	0.017
1.149	0.0587	0.018
1.15	0.0587	0.021
1.151	0.0587	0.025
1.152	0.0587	0.029
1.153	0.0587	0.030
1.154	0.0587	0.031
1.155	0.0587	0.031
1.156	0.0587	0.032
1.157	0.0587	0.039
1.158	0.0633	0.042
1.159	0.0725	0.040
1.16	0.0725	0.041
1.161	0.0725	0.037
1.162	0.0725	0.033
1.163	0.0725	0.022
1.164	0.0725	0.014
1.165	0.0725	0.006
1.166	0.0725	-0.002
1.167	0.0725	-0.007
1.168	0.0725	-0.014
1.169	0.0725	-0.021
1.17	0.0725	-0.026
1.171	0.0725	-0.029
1.172	0.0725	-0.030
1.173	0.0725	-0.028
1.174	0.0725	-0.024
1.175	0.0725	-0.018
1.176	0.0725	-0.009
1.177	0.0725	-0.003
1.178	0.0725	0.003
1.179	0.0725	0.008
1.18	0.0611	0.010
1.181	0.0384	0.009
1.182	0.0384	0.005
1.183	0.0384	-0.000
1.184	0.0384	-0.007
1.185	0.0384	-0.013
1.186	0.0384	-0.018
1.187	0.0384	-0.022
1.188	0.0384	-0.023
1.189	0.0384	-0.023
1.19	0.0384	-0.019
1.191	0.0384	-0.013
1.192	0.0384	-0.007
1.193	0.0384	0.001
1.194	0.0384	0.007
1.195	0.0384	0.012
1.196	0.0384	0.015
1.197	0.0378	0.017
1.198	0.0366	0.015
1.199	0.0366	0.008
1.2	0.0366	0.004
1.201	0.0366	-0.003
1.202	0.0366	-0.010
1.203	0.0366	-0.015
1.204	0.0366	-0.019
1.205	0.0366	-0.020
1.206	0.0366	-0.020
1.207	0.0366	-0.014
1.208	0.0366	-0.009
1.209	0.0366	-0.002
1.21	0.0366	0.004
1.211	0.0366	0.009
1.212	0.0366	0.013
1.213	0.0370	0.016
1.214	0.0378	0.016
1.215	0.0378	0.011
1.216	0.0378	0.006
1.217	0.0378	-0.000
1.218	0.0378	-0.007
1.219	0.0378	-0.013
1.22	0.0378	-0.019
1.221	0.0378	-0.021
1.222	0.0378	-0.022
1.223	0.0378	-0.019
1.224	0.0378	-0.013
1.225	0.0378	-0.007
1.226	0.0378	-0.001
1.227	0.0378	0.005
1.228	0.0378	0.011
1.229	0.0378	0.013
1.23	0.0515	0.014
1.231	0.0788	0.013
1.232	0.0788	0.007
1.233	0.0788	0.002
1.234	0.0788	-0.003
1.235	0.0788	-0.010
1.236	0.0788	-0.016
1.237	0.0788	-0.020
1.238	0.0788	-0.024
1.239	0.0788	-0.023
1.24	0.0788	-0.022
1.241	0.0788	-0.020
1.242	0.0788	-0.017
1.243	0.0788	-0.009
1.244	0.0788	-0.001
1.245	0.0788	0.007
1.246	0.0788	0.021
1.247	0.0788	0.033
1.248	0.0788	0.044
1.249	0.0788	0.055
1.25	0.0778	0.059
1.251	0.0759	0.057
1.252	0.0759	0.046
1.253	0.0759	0.028
1.254	0.0759	0.010
1.255	0.0759	-0.003
1.256	0.0759	-0.013
1.257	0.0759	-0.017
1.258	0.0759	-0.016
1.259	0.0759	-0.012
1.26	0.0759	-0.007
1.261	0.0759	-0.003
1.262	0.0759	0.002
1.263	0.0633	0.003
1.264	0.0381	0.003
1.265	0.0381	-0.001
1.266	0.0381	-0.006
1.267	0.0381	-0.011
1.268	0.0381	-0.017
1.269	0.0381	-0.020
1.27	0.0381	-0.025
1.271	0.0381	-0.027
1.272	0.0381	-0.027
1.273	0.0381	-0.025
1.274	0.0381	-0.019
1.275	0.0381	-0.013
1.276	0.0381	-0.006
1.277	0.0381	0.002
1.278	0.0381	0.007
1.279	0.0381	0.011
1.28	0.0381	0.013
1.281	0.0381	0.011
1.282	0.0381	0.006
1.283	0.0381	0.001
1.284	0.0381	-0.005
1.285	0.0381	-0.012
1.286	0.0381	-0.016
1.287	0.0381	-0.022
1.288	0.0381	-0.025
1.289	0.0381	-0.024
1.29	0.0381	-0.021
1.291	0.0381	-0.016
1.292	0.0381	-0.008
1.293	0.0381	-0.001
1.294	0.0381	0.005
1.295	0.0381	0.011
1.296	0.0383	0.014
1.297	0.0388	0.014
1.298	0.0388	0.011
1.299	0.0388	0.004
1.3	0.0388	-0.002
1.301	0.0388	-0.007
1.302	0.0388	-0.014
1.303	0.0388	-0.019
1.304	0.0388	-0.023
1.305	0.0388	-0.024
1.306	0.0388	-0.024
1.307	0.0388	-0.020
1.308	0.0388	-0.014
1.309	0.0388	-0.007
1.31	0.0388	0.001
1.311	0.0388	0.006
1.312	0.0388	0.010
1.313	0.0382	0.013
1.314	0.0372	0.012
1.315	0.0372	0.007
1.316	0.0372	0.002
1.317	0.0372	-0.004
1.318	0.0372	-0.010
1.319	0.0372	-0.016
1.32	0.0372	-0.021
1.321	0.0372	-0.024
1.322	0.0372	-0.024
1.323	0.0372	-0.021
1.324	0.0372	-0.016
1.325	0.0372	-0.010
1.326	0.0372	-0.003
1.327	0.0372	0.002
1.328	0.0372	0.007
1.329	0.0366	0.011
1.33	0.0353	0.010
1.331	0.0353	0.009
1.332	0.0353	0.003
1.333	0.0353	-0.002
1.334	0.0353	-0.007
1.335	0.0353	-0.014
1.336	0.0353	-0.019
1.337	0.0353	-0.023
1.338	0.0353	-0.024
1.339	0.0353	-0.024
1.34	0.0353	-0.021
1.341	0.0353	-0.015
1.342	0.0353	-0.010
1.343	0.0353	-0.003
1.344	0.0353	0.003
1.345	0.0353	0.008
1.346	0.0353	0.011
1.347	0.0489	0.012
1.348	0.0759	0.008
1.349	0.0759	0.003
1.35	0.0759	-0.003
1.351	0.0759	-0.011
1.352	0.0759	-0.016
1.353	0.0759	-0.020
1.354	0.0759	-0.024
1.355	0.0759	-0.027
1.356	0.0759	-0.027
1.357	0.0759	-0.023
1.358	0.0759	-0.019
1.359	0.0759	-0.011
1.36	0.0759	0.001
1.361	0.0759	0.015
1.362	0.0759	0.028
1.363	0.0759	0.038
1.364	0.0759	0.049
1.365	0.0702	0.055
1.366	0.0587	0.052
1.367	0.0587	0.045
1.368	0.0587	0.038
1.369	0.0587	0.031
1.37	0.0587	0.026
1.371	0.0587	0.019
1.372	0.0587	0.010
1.373	0.0587	-0.000
1.374	0.0587	-0.004
1.375	0.0587	-0.003
1.376	0.0587	-0.001
1.377	0.0587	0.003
1.378	0.0587	0.006
1.379	0.0528	0.008
1.38	0.0409	0.007
1.381	0.0409	0.005
1.382	0.0409	-0.002
1.383	0.0409	-0.007
1.384	0.0409	-0.014
1.385	0.0409	-0.021
1.386	0.0409	-0.025
1.387	0.0409	-0.029
1.388	0.0409	-0.033
1.389	0.0409	-0.032
1.39	0.0409	-0.027
1.391	0.0409	-0.021
1.392	0.0409	-0.015
1.393	0.0409	-0.008
1.394	0.0409	-0.003
1.395	0.0409	0.003
1.396	0.0409	0.007
1.397	0.0392	0.008
1.398	0.0356	0.006
1.399	0.0356	0.003
1.4	0.0356	-0.003
1.401	0.0356	-0.010
1.402	0.0356	-0.016
1.403	0.0356	-0.021
1.404	0.0356	-0.024
1.405	0.0356	-0.024
1.406	0.0356	-0.023
1.407	0.0356	-0.019
1.408	0.0356	-0.013
1.409	0.0356	-0.007
1.41	0.0356	-0.000
1.411	0.0356	0.006
1.412	0.0356	0.011
1.413	0.0357	0.013
1.414	0.0359	0.013
1.415	0.0359	0.010
1.416	0.0359	0.005
1.417	0.0359	-0.002
1.418	0.0359	-0.008
1.419	0.0359	-0.015
1.42	0.0359	-0.018
1.421	0.0359	-0.022
1.422	0.0359	-0.022
1.423	0.0359	-0.020
1.424	0.0359	-0.014
1.425	0.0359	-0.009
1.426	0.0359	-0.002
1.427	0.0359	0.004
1.428	0.0359	0.008
1.429	0.0359	0.013
1.43	0.0373	0.014
1.431	0.0400	0.011
1.432	0.0400	0.007
1.433	0.0400	0.000
1.434	0.0400	-0.007
1.435	0.0400	-0.013
1.436	0.0400	-0.019
1.437	0.0400	-0.024
1.438	0.0400	-0.026
1.439	0.0400	-0.025
1.44	0.0400	-0.022
1.441	0.0400	-0.018
1.442	0.0400	-0.011
1.443	0.0400	-0.003
1.444	0.0400	0.005
1.445	0.0400	0.010
1.446	0.0400	0.013
1.447	0.0396	0.015
1.448	0.0388	0.012
1.449	0.0388	0.006
1.45	0.0388	-0.000
1.451	0.0388	-0.007
1.452	0.0388	-0.013
1.453	0.0388	-0.018
1.454	0.0388	-0.022
1.455	0.0388	-0.024
1.456	0.0388	-0.023
1.457	0.0388	-0.019
1.458	0.0388	-0.013
1.459	0.0388	-0.006
1.46	0.0388	-0.000
1.461	0.0388	0.005
1.462	0.0388	0.010
1.463	0.0383	0.013
1.464	0.0375	0.011
1.465	0.0375	0.008
1.466	0.0375	0.002
1.467	0.0375	-0.004
1.468	0.0375	-0.012
1.469	0.0375	-0.016
1.47	0.0375	-0.021
1.471	0.0375	-0.025
1.472	0.0375	-0.025
1.473	0.0375	-0.023
1.474	0.0375	-0.018
1.475	0.0375	-0.013
1.476	0.0375	-0.004
1.477	0.0375	0.002
1.478	0.0375	0.007
1.479	0.0375	0.013
1.48	0.0372	0.013
1.481	0.0366	0.013
1.482	0.0366	0.008
1.483	0.0366	0.002
1.484	0.0366	-0.005
1.485	0.0366	-0.010
1.486	0.0366	-0.016
1.487	0.0366	-0.021
1.488	0.0366	-0.023
1.489	0.0366	-0.023
1.49	0.0366	-0.019
1.491	0.0366	-0.013
1.492	0.0366	-0.008
1.493	0.0366	-0.002
1.494	0.0366	0.004
1.495	0.0366	0.008
1.496	0.0475	0.011
1.497	0.0694	0.010
1.498	0.0694	0.008
1.499	0.0694	0.003
1.5	0.0694	-0.002
1.501	0.0694	-0.009
1.502	0.0694	-0.016
1.503	0.0694	-0.021
1.504	0.0694	-0.025
1.505	0.0694	-0.028
1.506	0.0694	-0.023
1.507	0.0694	-0.015
1.508	0.0694	-0.001
1.509	0.0694	0.017
1.51	0.0694	0.033
1.511	0.0694	0.042
1.512	0.0690	0.045
1.513	0.0681	0.044
1.514	0.0681	0.044
1.515	0.0681	0.042
1.516	0.0681	0.038
1.517	0.0681	0.034
1.518	0.0681	0.022
1.519	0.0681	0.004
1.52	0.0681	-0.011
1.521	0.0681	-0.020
1.522	0.0681	-0.022
1.523	0.0681	-0.023
1.524	0.0681	-0.018
1.525	0.0681	-0.012
1.526	0.0681	-0.004
1.527	0.0681	0.005
1.528	0.0681	0.012
1.529	0.0681	0.017
1.53	0.0669	0.018
1.531	0.0644	0.016
1.532	0.0644	0.009
1.533	0.0644	0.000
1.534	0.0644	-0.009
1.535	0.0644	-0.021
1.536	0.0644	-0.028
1.537	0.0644	-0.036
1.538	0.0644	-0.041
1.539	0.0644	-0.041
1.54	0.0644	-0.037
1.541	0.0644	-0.028
1.542	0.0644	-0.017
1.543	0.0644	-0.003
1.544	0.0644	0.008
1.545	0.0644	0.018
1.546	0.0644	0.023
1.547	0.0627	0.024
1.548	0.0594	0.021
1.549	0.0594	0.014
1.55	0.0594	0.004
1.551	0.0594	-0.007
1.552	0.0594	-0.017
1.553	0.0594	-0.026
1.554	0.0594	-0.032
1.555	0.0594	-0.034
1.556	0.0594	-0.033
1.557	0.0594	-0.025
1.558	0.0594	-0.017
1.559	0.0594	-0.007
1.56	0.0594	0.004
1.561	0.0594	0.013
1.562	0.0594	0.020
1.563	0.0594	0.026
1.564	0.0601	0.026
1.565	0.0616	0.021
1.566	0.0616	0.013
1.567	0.0616	0.003
1.568	0.0616	-0.010
1.569	0.0616	-0.020
1.57	0.0616	-0.027
1.571	0.0616	-0.033
1.572	0.0616	-0.035
1.573	0.0616	-0.032
1.574	0.0616	-0.025
1.575	0.0616	-0.016
1.576	0.0616	-0.004
1.577	0.0616	0.007
1.578	0.0616	0.017
1.579	0.0616	0.023
1.58	0.0585	0.026
1.581	0.0525	0.025
1.582	0.0525	0.018
1.583	0.0525	0.008
1.584	0.0525	-0.002
1.585	0.0525	-0.011
1.586	0.0525	-0.018
1.587	0.0525	-0.024
1.588	0.0525	-0.027
1.589	0.0525	-0.027
1.59	0.0525	-0.024
1.591	0.0525	-0.018
1.592	0.0525	-0.011
1.593	0.0525	-0.004
1.594	0.0525	0.003
1.595	0.0525	0.009
1.596	0.0525	0.013
1.597	0.0474	0.013
1.598	0.0372	0.010
1.599	0.0372	0.003
1.6	0.0372	-0.003
1.601	0.0372	-0.009
1.602	0.0372	-0.015
1.603	0.0372	-0.020
1.604	0.0372	-0.023
1.605	0.0372	-0.024
1.606	0.0372	-0.022
1.607	0.0372	-0.017
1.608	0.0372	-0.012
1.609	0.0372	-0.005
1.61	0.0372	0.002
1.611	0.0372	0.006
1.612	0.0372	0.011
1.613	0.1349	0.014
1.614	0.3303	0.013
1.615	0.3303	0.009
1.616	0.3303	0.003
1.617	0.3303	-0.003
1.618	0.3303	-0.007
1.619	0.3303	-0.012
1.62	0.3303	-0.017
1.621	0.3303	-0.022
1.622	0.3303	-0.025
1.623	0.3303	-0.026
1.624	0.3303	-0.022
1.625	0.3303	-0.018
1.626	0.3303	-0.002
1.627	0.3303	0.069
1.628	0.3303	0.164
1.629	0.3303	0.258
1.63	0.3303	0.305
1.631	0.4793	0.312
1.632	0.7772	0.260
1.633	0.7772	0.156
1.634	0.7772	0.032
1.635	0.7772	-0.121
1.636	0.7772	-0.250
1.637	0.7772	-0.359
1.638	0.7772	-0.420
1.639	0.7772	-0.426
1.64	0.7772	-0.387
1.641	0.7772	-0.283
1.642	0.7772	-0.158
1.643	0.7772	-0.007
1.644	0.7772	0.141
1.645	0.7772	0.262
1.646	0.7772	0.351
1.647	0.7757	0.381
1.648	0.7728	0.370
1.649	0.7728	0.296
1.65	0.7728	0.191
1.651	0.7728	0.059
1.652	0.7728	-0.090
1.653	0.7728	-0.216
1.654	0.7728	-0.323
1.655	0.7728	-0.377
1.656	0.7728	-0.384
1.657	0.7728	-0.329
1.658	0.7728	-0.220
1.659	0.7728	-0.088
1.66	0.7728	0.069
1.661	0.7728	0.206
1.662	0.7728	0.321
1.663	0.7728	0.389
1.664	0.7823	0.403
1.665	0.8012	0.368
1.666	0.8012	0.266
1.667	0.8012	0.144
1.668	0.8012	-0.008
1.669	0.8012	-0.155
1.67	0.8012	-0.277
1.671	0.8012	-0.366
1.672	0.8012	-0.398
1.673	0.8012	-0.387
1.674	0.8012	-0.307
1.675	0.8012	-0.193
1.676	0.8012	-0.054
1.677	0.8012	0.099
1.678	0.8012	0.225
1.679	0.8012	0.328
1.68	0.8012	0.379
1.681	0.7933	0.381
1.682	0.7775	0.325
1.683	0.7775	0.217
1.684	0.7775	0.090
1.685	0.7775	-0.064
1.686	0.7775	-0.197
1.687	0.7775	-0.311
1.688	0.7775	-0.380
1.689	0.7775	-0.396
1.69	0.7775	-0.365
1.691	0.7775	-0.267
1.692	0.7775	-0.148
1.693	0.7775	0.000
1.694	0.7775	0.145
1.695	0.7775	0.266
1.696	0.7775	0.355
1.697	0.7780	0.385
1.698	0.7791	0.375
1.699	0.7791	0.296
1.7	0.7791	0.183
1.701	0.7791	0.045
1.702	0.7791	-0.107
1.703	0.7791	-0.234
1.704	0.7791	-0.337
1.705	0.7791	-0.388
1.706	0.7791	-0.394
1.707	0.7791	-0.338
1.708	0.7791	-0.232
1.709	0.7791	-0.105
1.71	0.7791	0.050
1.711	0.7791	0.185
1.712	0.7791	0.298
1.713	0.7791	0.370
1.714	0.7799	0.388
1.715	0.7816	0.356
1.716	0.7816	0.261
1.717	0.7816	0.143
1.718	0.7816	-0.007
1.719	0.7816	-0.151
1.72	0.7816	-0.271
1.721	0.7816	-0.361
1.722	0.7816	-0.394
1.723	0.7816	-0.385
1.724	0.7816	-0.307
1.725	0.7816	-0.195
1.726	0.7816	-0.058
1.727	0.7816	0.092
1.728	0.7816	0.219
1.729	0.7816	0.324
1.73	0.7816	0.377
1.731	0.6819	0.384
1.732	0.4825	0.332
1.733	0.4825	0.228
1.734	0.4825	0.103
1.735	0.4825	-0.008
1.736	0.4825	-0.066
1.737	0.4825	-0.090
1.738	0.4825	-0.099
1.739	0.4825	-0.098
1.74	0.4825	-0.091
1.741	0.4825	-0.078
1.742	0.4825	-0.067
1.743	0.4825	-0.054
1.744	0.4825	-0.042
1.745	0.4825	-0.033
1.746	0.4825	-0.026
1.747	0.4825	-0.022
1.748	0.3362	-0.019
1.749	0.0437	-0.021
1.75	0.0437	-0.023
1.751	0.0437	-0.028
1.752	0.0437	-0.033
1.753	0.0437	-0.036
1.754	0.0437	-0.038
1.755	0.0437	-0.038
1.756	0.0437	-0.037
1.757	0.0437	-0.033
1.758	0.0437	-0.026
1.759	0.0437	-0.018
1.76	0.0437	-0.009
1.761	0.0437	-0.004
1.762	0.0437	0.002
1.763	0.0437	0.005
1.764	0.0420	0.006
1.765	0.0384	0.005
1.766	0.0384	-0.001
1.767	0.0384	-0.007
1.768	0.0384	-0.013
1.769	0.0384	-0.018
1.77	0.0384	-0.024
1.771	0.0384	-0.026
1.772	0.0384	-0.028
1.773	0.0384	-0.026
1.774	0.0384	-0.021
1.775	0.0384	-0.015
1.776	0.0384	-0.007
1.777	0.0384	0.000
1.778	0.0384	0.005
1.779	0.0384	0.011
1.78	0.0378	0.013
1.781	0.0366	0.013
1.782	0.0366	0.008
1.783	0.0366	0.003
1.784	0.0366	-0.003
1.785	0.0366	-0.010
1.786	0.0366	-0.015
1.787	0.0366	-0.020
1.788	0.0366	-0.023
1.789	0.0366	-0.023
1.79	0.0366	-0.020
1.791	0.0366	-0.014
1.792	0.0366	-0.009
1.793	0.0366	-0.002
1.794	0.0366	0.004
1.795	0.0366	0.011
1.796	0.0360	0.015
1.797	0.0350	0.013
1.798	0.0350	0.013
1.799	0.0350	0.008
1.8	0.0350	0.003
1.801	0.0350	-0.003
1.802	0.0350	-0.010
1.803	0.0350	-0.016
1.804	0.0350	-0.019
1.805	0.0350	-0.020
1.806	0.0350	-0.020
1.807	0.0350	-0.015
1.808	0.0350	-0.010
1.809	0.0350	-0.004
1.81	0.0350	0.004
1.811	0.0350	0.009
1.812	0.0350	0.013
1.813	0.0350	0.013
1.814	0.0531	0.014
1.815	0.0894	0.011
1.816	0.0894	0.005
1.817	0.0894	-0.001
1.818	0.0894	-0.008
1.819	0.0894	-0.013
1.82	0.0894	-0.017
1.821	0.0894	-0.016
1.822	0.0894	-0.007
1.823	0.0894	0.006
1.824	0.0894	0.024
1.825	0.0894	0.039
1.826	0.0894	0.053
1.827	0.0894	0.063
1.828	0.0894	0.069
1.829	0.0894	0.072
1.83	0.0958	0.072
1.831	0.1088	0.067
1.832	0.1088	0.056
1.833	0.1088	0.047
1.834	0.1088	0.032
1.835	0.1088	0.013
1.836	0.1088	-0.009
1.837	0.1088	-0.027
1.838	0.1088	-0.034
1.839	0.1088	-0.036
1.84	0.1088	-0.035
1.841	0.1088	-0.029
1.842	0.1088	-0.023
1.843	0.1088	-0.017
1.844	0.1088	-0.009
1.845	0.1088	-0.004
1.846	0.1088	-0.000
1.847	0.1088	-0.000
1.848	0.0859	0.000
1.849	0.0403	-0.005
1.85	0.0403	-0.008
1.851	0.0403	-0.013
1.852	0.0403	-0.019
1.853	0.0403	-0.024
1.854	0.0403	-0.026
1.855	0.0403	-0.028
1.856	0.0403	-0.027
1.857	0.0403	-0.022
1.858	0.0403	-0.017
1.859	0.0403	-0.012
1.86	0.0403	-0.002
1.861	0.0403	0.004
1.862	0.0403	0.010
1.863	0.0403	0.012
1.864	0.0391	0.013
1.865	0.0366	0.011
1.866	0.0366	0.006
1.867	0.0366	0.000
1.868	0.0366	-0.006
1.869	0.0366	-0.011
1.87	0.0366	-0.016
1.871	0.0366	-0.020
1.872	0.0366	-0.021
1.873	0.0366	-0.019
1.874	0.0366	-0.015
1.875	0.0366	-0.008
1.876	0.0366	-0.002
1.877	0.0366	0.005
1.878	0.0366	0.012
1.879	0.0366	0.016
1.88	0.0369	0.017
1.881	0.0375	0.016
1.882	0.0375	0.012
1.883	0.0375	0.006
1.884	0.0375	-0.000
1.885	0.0375	-0.007
1.886	0.0375	-0.013
1.887	0.0375	-0.018
1.888	0.0375	-0.021
1.889	0.0375	-0.021
1.89	0.0375	-0.018
1.891	0.0375	-0.013
1.892	0.0375	-0.007
1.893	0.0375	0.000
1.894	0.0375	0.006
1.895	0.0375	0.009
1.896	0.0375	0.013
1.897	0.0375	0.015
1.898	0.0375	0.013
1.899	0.0375	0.007
1.9	0.0375	0.002
1.901	0.0375	-0.004
1.902	0.0375	-0.010
1.903	0.0375	-0.015
1.904	0.0375	-0.021
1.905	0.0375	-0.022
1.906	0.0375	-0.022
1.907	0.0375	-0.019
1.908	0.0375	-0.014
1.909	0.0375	-0.008
1.91	0.0375	0.000
1.911	0.0375	0.004
1.912	0.0375	0.010
1.913	0.0375	0.013
1.914	0.0362	0.013
1.915	0.0338	0.011
1.916	0.0338	0.006
1.917	0.0338	-0.001
1.918	0.0338	-0.007
1.919	0.0338	-0.013
1.92	0.0338	-0.017
1.921	0.0338	-0.020
1.922	0.0338	-0.021
1.923	0.0338	-0.020
1.924	0.0338	-0.015
1.925	0.0338	-0.011
1.926	0.0338	-0.004
1.927	0.0338	0.003
1.928	0.0338	0.008
1.929	0.0338	0.012
1.93	0.0338	0.014
1.931	0.0338	0.013
1.932	0.0338	0.009
1.933	0.0338	0.004
1.934	0.0338	-0.001
1.935	0.0338	-0.008
1.936	0.0338	-0.013
1.937	0.0338	-0.016
1.938	0.0338	-0.018
1.939	0.0338	-0.019
1.94	0.0338	-0.017
1.941	0.0338	-0.013
1.942	0.0338	-0.007
1.943	0.0338	-0.001
1.944	0.0338	0.005
1.945	0.0338	0.011
1.946	0.0352	0.013
1.947	0.0381	0.013
1.948	0.0381	0.013
1.949	0.0381	0.008
1.95	0.0381	0.003
1.951	0.0381	-0.003
1.952	0.0381	-0.010
1.953	0.0381	-0.015
1.954	0.0381	-0.020
1.955	0.0381	-0.020
1.956	0.0381	-0.022
1.957	0.0381	-0.017
1.958	0.0381	-0.011
1.959	0.0381	-0.005
1.96	0.0381	0.003
1.961	0.0381	0.009
1.962	0.0381	0.013
1.963	0.0381	0.017
1.964	0.0373	0.017
1.965	0.0356	0.014
1.966	0.0356	0.008
1.967	0.0356	0.003
1.968	0.0356	-0.005
1.969	0.0356	-0.011
1.97	0.0356	-0.015
1.971	0.0356	-0.018
1.972	0.0356	-0.019
1.973	0.0356	-0.018
1.974	0.0356	-0.015
1.975	0.0356	-0.009
1.976	0.0356	-0.002
1.977	0.0356	0.006
1.978	0.0356	0.010
1.979	0.0356	0.016
1.98	0.0537	0.016
1.981	0.0900	0.015
1.982	0.0900	0.012
1.983	0.0900	0.006
1.984	0.0900	-0.001
1.985	0.0900	-0.007
1.986	0.0900	-0.012
1.987	0.0900	-0.016
1.988	0.0900	-0.018
1.989	0.0900	-0.018
1.99	0.0900	-0.016
1.991	0.0900	-0.005
1.992	0.0900	0.010
1.993	0.0900	0.028
1.994	0.0900	0.048
1.995	0.0900	0.062
1.996	0.0900	0.072
1.997	0.0907	0.072
1.998	0.0922	0.071
1.999	0.0922	0.064
2	0.0922	0.058
2.001	0.0922	0.046
2.002	0.0922	0.035
2.003	0.0922	0.026
2.004	0.0922	0.014
2.005	0.0922	-0.000
2.006	0.0922	-0.015
2.007	0.0922	-0.020
2.008	0.0922	-0.018
2.009	0.0922	-0.014
2.01	0.0922	-0.007
2.011	0.0922	-0.003
2.012	0.0922	0.002
2.013	0.0753	0.005
2.014	0.0416	0.005
2.015	0.0416	0.002
2.016	0.0416	-0.003
2.017	0.0416	-0.009
2.018	0.0416	-0.016
2.019	0.0416	-0.021
2.02	0.0416	-0.026
2.021	0.0416	-0.028
2.022	0.0416	-0.028
2.023	0.0416	-0.026
2.024	0.0416	-0.021
2.025	0.0416	-0.014
2.026	0.0416	-0.008
2.027	0.0416	-0.000
2.028	0.0416	0.006
2.029	0.0416	0.011
2.03	0.0416	0.013
2.031	0.0389	0.015
2.032	0.0334	0.011
2.033	0.0334	0.007
2.034	0.0334	0.001
2.035	0.0334	-0.007
2.036	0.0334	-0.012
2.037	0.0334	-0.015
2.038	0.0334	-0.018
2.039	0.0334	-0.018
2.04	0.0334	-0.015
2.041	0.0334	-0.011
2.042	0.0334	-0.006
2.043	0.0334	0.001
2.044	0.0334	0.007
2.045	0.0334	0.012
2.046	0.0334	0.015
2.047	0.0345	0.016
2.048	0.0366	0.015
2.049	0.0366	0.011
2.05	0.0366	0.005
2.051	0.0366	-0.003
2.052	0.0366	-0.009
2.053	0.0366	-0.013
2.054	0.0366	-0.020
2.055	0.0366	-0.020
2.056	0.0366	-0.019
2.057	0.0366	-0.016
2.058	0.0366	-0.012
2.059	0.0366	-0.006
2.06	0.0366	0.001
2.061	0.0366	0.007
2.062	0.0366	0.012
2.063	0.0366	0.015
2.064	0.0359	0.016
2.065	0.0347	0.013
2.066	0.0347	0.007
2.067	0.0347	0.003
2.068	0.0347	-0.004
2.069	0.0347	-0.010
2.07	0.0347	-0.015
2.071	0.0347	-0.018
2.072	0.0347	-0.019
2.073	0.0347	-0.017
2.074	0.0347	-0.012
2.075	0.0347	-0.006
2.076	0.0347	0.000
2.077	0.0347	0.007
2.078	0.0347	0.011
2.079	0.0347	0.014
2.08	0.0447	0.016
2.081	0.0647	0.015
2.082	0.0647	0.012
2.083	0.0647	0.005
2.084	0.0647	-0.001
2.085	0.0647	-0.008
2.086	0.0647	-0.014
2.087	0.0647	-0.018
2.088	0.0647	-0.021
2.089	0.0647	-0.021
2.09	0.0647	-0.018
2.091	0.0647	-0.010
2.092	0.0647	0.002
2.093	0.0647	0.017
2.094	0.0647	0.032
2.095	0.0647	0.043
2.096	0.0617	0.052
2.097	0.0556	0.052
2.098	0.0556	0.047
2.099	0.0556	0.037
2.1	0.0556	0.032
2.101	0.0556	0.026
2.102	0.0556	0.026
2.103	0.0556	0.019
2.104	0.0556	0.007
2.105	0.0556	-0.001
2.106	0.0556	-0.004
2.107	0.0556	-0.002
2.108	0.0556	0.001
2.109	0.0556	0.004
2.11	0.0556	0.008
2.111	0.0556	0.011
2.112	0.0556	0.014
2.113	0.0508	0.014
2.114	0.0413	0.013
2.115	0.0413	0.008
2.116	0.0413	0.002
2.117	0.0413	-0.004
2.118	0.0413	-0.011
2.119	0.0413	-0.017
2.12	0.0413	-0.023
2.121	0.0413	-0.026
2.122	0.0413	-0.027
2.123	0.0413	-0.025
2.124	0.0413	-0.018
2.125	0.0413	-0.010
2.126	0.0413	-0.004
2.127	0.0413	0.003
2.128	0.0413	0.009
2.129	0.0413	0.013
2.13	0.0413	0.014
2.131	0.0399	0.015
2.132	0.0372	0.010
2.133	0.0372	0.004
2.134	0.0372	-0.001
2.135	0.0372	-0.006
2.136	0.0372	-0.012
2.137	0.0372	-0.015
2.138	0.0372	-0.017
2.139	0.0372	-0.019
2.14	0.0372	-0.017
2.141	0.0372	-0.011
2.142	0.0372	-0.006
2.143	0.0372	0.003
2.144	0.0372	0.010
2.145	0.0372	0.015
2.146	0.0372	0.018
2.147	0.0364	0.020
2.148	0.0347	0.018
2.149	0.0347	0.014
2.15	0.0347	0.009
2.151	0.0347	0.003
2.152	0.0347	-0.004
2.153	0.0347	-0.009
2.154	0.0347	-0.013
2.155	0.0347	-0.015
2.156	0.0347	-0.015
2.157	0.0347	-0.011
2.158	0.0347	-0.005
2.159	0.0347	0.001
2.16	0.0347	0.007
2.161	0.0347	0.012
2.162	0.0347	0.017
2.163	0.0390	0.019
2.164	0.0475	0.018
2.165	0.0475	0.016
2.166	0.0475	0.011
2.167	0.0475	0.005
2.168	0.0475	0.000
2.169	0.0475	-0.006
2.17	0.0475	-0.014
2.171	0.0475	-0.021
2.172	0.0475	-0.024
2.173	0.0475	-0.027
2.174	0.0475	-0.027
2.175	0.0475	-0.024
2.176	0.0475	-0.018
2.177	0.0475	-0.007
2.178	0.0475	0.005
2.179	0.0475	0.015
2.18	0.0475	0.021
2.181	0.0434	0.025
2.182	0.0353	0.022
2.183	0.0353	0.018
2.184	0.0353	0.013
2.185	0.0353	0.006
2.186	0.0353	0.000
2.187	0.0353	-0.006
2.188	0.0353	-0.010
2.189	0.0353	-0.011
2.19	0.0353	-0.009
2.191	0.0353	-0.004
2.192	0.0353	0.002
2.193	0.0353	0.009
2.194	0.0353	0.014
2.195	0.0353	0.019
2.196	0.0353	0.021
2.197	0.0358	0.022
2.198	0.0369	0.019
2.199	0.0369	0.014
2.2	0.0369	0.007
2.201	0.0369	0.001
2.202	0.0369	-0.005
2.203	0.0369	-0.010
2.204	0.0369	-0.014
2.205	0.0369	-0.015
2.206	0.0369	-0.015
2.207	0.0369	-0.011
2.208	0.0369	-0.004
2.209	0.0369	0.001
2.21	0.0369	0.007
2.211	0.0369	0.014
2.212	0.0369	0.019
2.213	0.0591	0.020
2.214	0.1034	0.017
2.215	0.1034	0.007
2.216	0.1034	-0.010
2.217	0.1034	-0.024
2.218	0.1034	-0.035
2.219	0.1034	-0.044
2.22	0.1034	-0.049
2.221	0.1034	-0.047
2.222	0.1034	-0.042
2.223	0.1034	-0.042
2.224	0.1034	-0.035
2.225	0.1034	-0.030
2.226	0.1034	-0.017
2.227	0.1034	0.000
2.228	0.1034	0.020
2.229	0.1034	0.040
2.23	0.1034	0.055
2.231	0.0868	0.062
2.232	0.0534	0.061
2.233	0.0534	0.056
2.234	0.0534	0.047
2.235	0.0534	0.037
2.236	0.0534	0.029
2.237	0.0534	0.020
2.238	0.0534	0.014
2.239	0.0534	0.009
2.24	0.0534	0.008
2.241	0.0534	0.013
2.242	0.0534	0.017
2.243	0.0534	0.021
2.244	0.0534	0.025
2.245	0.0534	0.029
2.246	0.0534	0.032
2.247	0.0491	0.033
2.248	0.0403	0.032
2.249	0.0403	0.024
2.25	0.0403	0.018
2.251	0.0403	0.012
2.252	0.0403	0.005
2.253	0.0403	-0.000
2.254	0.0403	-0.005
2.255	0.0403	-0.007
2.256	0.0403	-0.008
2.257	0.0403	-0.005
2.258	0.0403	-0.001
2.259	0.0403	0.006
2.26	0.0403	0.013
2.261	0.0403	0.018
2.262	0.0403	0.025
2.263	0.0401	0.026
2.264	0.0397	0.026
2.265	0.0397	0.022
2.266	0.0397	0.018
2.267	0.0397	0.011
2.268	0.0397	0.003
2.269	0.0397	-0.003
2.27	0.0397	-0.009
2.271	0.0397	-0.013
2.272	0.0397	-0.013
2.273	0.0397	-0.013
2.274	0.0397	-0.008
2.275	0.0397	-0.004
2.276	0.0397	0.002
2.277	0.0397	0.008
2.278	0.0397	0.013
2.279	0.0397	0.017
2.28	0.0401	0.018
2.281	0.0409	0.017
2.282	0.0409	0.012
2.283	0.0409	0.005
2.284	0.0409	0.000
2.285	0.0409	-0.007
2.286	0.0409	-0.014
2.287	0.0409	-0.019
2.288	0.0409	-0.022
2.289	0.0409	-0.022
2.29	0.0409	-0.020
2.291	0.0409	-0.015
2.292	0.0409	-0.010
2.293	0.0409	-0.002
2.294	0.0409	0.005
2.295	0.0409	0.010
2.296	0.0393	0.014
2.297	0.0359	0.014
2.298	0.0359	0.013
2.299	0.0359	0.006
2.3	0.0359	0.002
2.301	0.0359	-0.006
2.302	0.0359	-0.012
2.303	0.0359	-0.016
2.304	0.0359	-0.021
2.305	0.0359	-0.022
2.306	0.0359	-0.022
2.307	0.0359	-0.018
2.308	0.0359	-0.014
2.309	0.0359	-0.007
2.31	0.0359	0.000
2.311	0.0359	0.006
2.312	0.0359	0.013
2.313	0.0359	0.014
2.314	0.0518	0.015
2.315	0.0834	0.013
2.316	0.0834	0.007
2.317	0.0834	0.001
2.318	0.0834	-0.006
2.319	0.0834	-0.014
2.32	0.0834	-0.019
2.321	0.0834	-0.022
2.322	0.0834	-0.020
2.323	0.0834	-0.013
2.324	0.0834	0.002
2.325	0.0834	0.016
2.326	0.0834	0.031
2.327	0.0834	0.042
2.328	0.0834	0.045
2.329	0.0834	0.047
2.33	0.0834	0.054
2.331	0.0834	0.062
2.332	0.0806	0.063
2.333	0.0750	0.058
2.334	0.0750	0.046
2.335	0.0750	0.028
2.336	0.0750	0.012
2.337	0.0750	-0.000
2.338	0.0750	-0.007
2.339	0.0750	-0.011
2.34	0.0750	-0.012
2.341	0.0750	-0.011
2.342	0.0750	-0.007
2.343	0.0750	-0.004
2.344	0.0750	-0.000
2.345	0.0750	0.004
2.346	0.0644	0.007
2.347	0.0431	0.006
2.348	0.0431	0.004
2.349	0.0431	-0.004
2.35	0.0431	-0.013
2.351	0.0431	-0.018
2.352	0.0431	-0.023
2.353	0.0431	-0.028
2.354	0.0431	-0.033
2.355	0.0431	-0.033
2.356	0.0431	-0.032
2.357	0.0431	-0.028
2.358	0.0431	-0.020
2.359	0.0431	-0.013
2.36	0.0431	-0.004
2.361	0.0431	0.003
2.362	0.0431	0.007
2.363	0.0431	0.010
2.364	0.0412	0.012
2.365	0.0375	0.010
2.366	0.0375	0.005
2.367	0.0375	-0.001
2.368	0.0375	-0.007
2.369	0.0375	-0.012
2.37	0.0375	-0.016
2.371	0.0375	-0.020
2.372	0.0375	-0.020
2.373	0.0375	-0.018
2.374	0.0375	-0.013
2.375	0.0375	-0.007
2.376	0.0375	0.000
2.377	0.0375	0.005
2.378	0.0375	0.011
2.379	0.0375	0.016
2.38	0.0375	0.018
2.381	0.0369	0.019
2.382	0.0356	0.015
2.383	0.0356	0.008
2.384	0.0356	0.003
2.385	0.0356	-0.003
2.386	0.0356	-0.007
2.387	0.0356	-0.013
2.388	0.0356	-0.015
2.389	0.0356	-0.015
2.39	0.0356	-0.014
2.391	0.0356	-0.008
2.392	0.0356	-0.004
2.393	0.0356	0.003
2.394	0.0356	0.011
2.395	0.0356	0.017
2.396	0.0356	0.020
2.397	0.0358	0.022
2.398	0.0362	0.020
2.399	0.0362	0.015
2.4	0.0362	0.010
2.401	0.0362	0.003
2.402	0.0362	-0.005
2.403	0.0362	-0.010
2.404	0.0362	-0.014
2.405	0.0362	-0.014
2.406	0.0362	-0.014
2.407	0.0362	-0.008
2.408	0.0362	-0.001
2.409	0.0362	0.004
2.41	0.0362	0.011
2.411	0.0362	0.017
2.412	0.0362	0.022
2.413	0.0427	0.023
2.414	0.0556	0.022
2.415	0.0556	0.018
2.416	0.0556	0.014
2.417	0.0556	0.007
2.418	0.0556	0.002
2.419	0.0556	0.003
2.42	0.0556	0.005
2.421	0.0556	0.011
2.422	0.0556	0.017
2.423	0.0556	0.021
2.424	0.0556	0.025
2.425	0.0556	0.027
2.426	0.0556	0.029
2.427	0.0556	0.037
2.428	0.0556	0.047
2.429	0.0556	0.058
2.43	0.0621	0.058
2.431	0.0750	0.051
2.432	0.0750	0.041
2.433	0.0750	0.032
2.434	0.0750	0.024
2.435	0.0750	0.013
2.436	0.0750	0.003
2.437	0.0750	-0.005
2.438	0.0750	-0.012
2.439	0.0750	-0.017
2.44	0.0750	-0.017
2.441	0.0750	-0.014
2.442	0.0750	-0.011
2.443	0.0750	-0.003
2.444	0.0750	0.003
2.445	0.0750	0.007
2.446	0.0630	0.011
2.447	0.0391	0.010
2.448	0.0391	0.009
2.449	0.0391	0.005
2.45	0.0391	0.000
2.451	0.0391	-0.007
2.452	0.0391	-0.012
2.453	0.0391	-0.017
2.454	0.0391	-0.020
2.455	0.0391	-0.022
2.456	0.0391	-0.022
2.457	0.0391	-0.018
2.458	0.0391	-0.012
2.459	0.0391	-0.004
2.46	0.0391	0.003
2.461	0.0391	0.008
2.462	0.0391	0.015
2.463	0.0391	0.017
2.464	0.0433	0.018
2.465	0.0519	0.017
2.466	0.0519	0.011
2.467	0.0519	0.006
2.468	0.0519	-0.000
2.469	0.0519	-0.010
2.47	0.0519	-0.018
2.471	0.0519	-0.025
2.472	0.0519	-0.029
2.473	0.0519	-0.028
2.474	0.0519	-0.019
2.475	0.0519	-0.009
2.476	0.0519	0.002
2.477	0.0519	0.014
2.478	0.0519	0.023
2.479	0.0597	0.028
2.48	0.0753	0.028
2.481	0.0753	0.024
2.482	0.0753	0.015
2.483	0.0753	0.003
2.484	0.0753	-0.011
2.485	0.0753	-0.024
2.486	0.0753	-0.034
2.487	0.0753	-0.043
2.488	0.0753	-0.047
2.489	0.0753	-0.046
2.49	0.0753	-0.040
2.491	0.0753	-0.031
2.492	0.0753	-0.020
2.493	0.0753	-0.004
2.494	0.0753	0.008
2.495	0.0753	0.018
2.496	0.0753	0.027
2.497	0.0733	0.029
2.498	0.0694	0.028
2.499	0.0694	0.021
2.5	0.0694	0.011
2.501	0.0694	0.000
2.502	0.0694	-0.013
2.503	0.0694	-0.024
2.504	0.0694	-0.032
2.505	0.0694	-0.035
2.506	0.0694	-0.035
2.507	0.0694	-0.028
2.508	0.0694	-0.018
2.509	0.0694	-0.008
2.51	0.0694	0.006
2.511	0.0694	0.018
2.512	0.0694	0.028
2.513	0.0694	0.034
2.514	0.0751	0.035
2.515	0.0866	0.032
2.516	0.0866	0.022
2.517	0.0866	0.013
2.518	0.0866	-0.001
2.519	0.0866	-0.014
2.52	0.0866	-0.026
2.521	0.0866	-0.037
2.522	0.0866	-0.039
2.523	0.0866	-0.037
2.524	0.0866	-0.028
2.525	0.0866	-0.016
2.526	0.0866	0.001
2.527	0.0866	0.017
2.528	0.0866	0.031
2.529	0.0866	0.044
2.53	0.0866	0.048
2.531	0.0869	0.049
2.532	0.0875	0.043
2.533	0.0875	0.030
2.534	0.0875	0.015
2.535	0.0875	-0.001
2.536	0.0875	-0.017
2.537	0.0875	-0.029
2.538	0.0875	-0.036
2.539	0.0875	-0.038
2.54	0.0875	-0.034
2.541	0.0875	-0.023
2.542	0.0875	-0.010
2.543	0.0875	0.007
2.544	0.0875	0.024
2.545	0.0875	0.038
2.546	0.0875	0.048
2.547	0.0899	0.053
2.548	0.0947	0.049
2.549	0.0947	0.040
2.55	0.0947	0.028
2.551	0.0947	0.014
2.552	0.0947	-0.004
2.553	0.0947	-0.018
2.554	0.0947	-0.030
2.555	0.0947	-0.040
2.556	0.0947	-0.042
2.557	0.0947	-0.037
2.558	0.0947	-0.026
2.559	0.0947	-0.012
2.56	0.0947	0.005
2.561	0.0947	0.019
2.562	0.0947	0.034
2.563	0.0947	0.044
2.564	0.0883	0.047
2.565	0.0756	0.044
2.566	0.0756	0.033
2.567	0.0756	0.023
2.568	0.0756	0.011
2.569	0.0756	0.004
2.57	0.0756	0.002
2.571	0.0756	-0.001
2.572	0.0756	-0.002
2.573	0.0756	0.002
2.574	0.0756	0.014
2.575	0.0756	0.032
2.576	0.0756	0.052
2.577	0.0756	0.074
2.578	0.0830	0.084
2.579	0.0978	0.083
2.58	0.0978	0.077
2.581	0.0978	0.071
2.582	0.0978	0.060
2.583	0.0978	0.046
2.584	0.0978	0.034
2.585	0.0978	0.017
2.586	0.0978	0.007
2.587	0.0978	-0.002
2.588	0.0978	-0.011
2.589	0.0978	-0.014
2.59	0.0978	-0.014
2.591	0.0978	-0.010
2.592	0.0978	-0.004
2.593	0.0978	0.003
2.594	0.0978	0.009
2.595	0.0978	0.014
2.596	0.0978	0.018
2.597	0.0776	0.019
2.598	0.0372	0.018
2.599	0.0372	0.014
2.6	0.0372	0.008
2.601	0.0372	0.003
2.602	0.0372	-0.003
2.603	0.0372	-0.007
2.604	0.0372	-0.012
2.605	0.0372	-0.013
2.606	0.0372	-0.013
2.607	0.0372	-0.010
2.608	0.0372	-0.003
2.609	0.0372	0.003
2.61	0.0372	0.009
2.611	0.0372	0.017
2.612	0.0372	0.021
2.613	0.0372	0.024
2.614	0.0370	0.026
2.615	0.0366	0.024
2.616	0.0366	0.018
2.617	0.0366	0.013
2.618	0.0366	0.007
2.619	0.0366	-0.000
2.62	0.0366	-0.004
2.621	0.0366	-0.008
2.622	0.0366	-0.010
2.623	0.0366	-0.009
2.624	0.0366	-0.004
2.625	0.0366	0.002
2.626	0.0366	0.008
2.627	0.0366	0.015
2.628	0.0366	0.021
2.629	0.0366	0.025
2.63	0.0370	0.026
2.631	0.0378	0.025
2.632	0.0378	0.022
2.633	0.0378	0.017
2.634	0.0378	0.009
2.635	0.0378	0.003
2.636	0.0378	-0.003
2.637	0.0378	-0.008
2.638	0.0378	-0.011
2.639	0.0378	-0.012
2.64	0.0378	-0.009
2.641	0.0378	-0.004
2.642	0.0378	0.002
2.643	0.0378	0.008
2.644	0.0378	0.015
2.645	0.0378	0.020
2.646	0.0378	0.023
2.647	0.0379	0.025
2.648	0.0381	0.024
2.649	0.0381	0.017
2.65	0.0381	0.011
2.651	0.0381	0.004
2.652	0.0381	-0.003
2.653	0.0381	-0.007
2.654	0.0381	-0.012
2.655	0.0381	-0.013
2.656	0.0381	-0.013
2.657	0.0381	-0.009
2.658	0.0381	-0.004
2.659	0.0381	0.004
2.66	0.0381	0.011
2.661	0.0381	0.016
2.662	0.0381	0.022
2.663	0.0381	0.025
2.664	0.0380	0.025
2.665	0.0378	0.023
2.666	0.0378	0.017
2.667	0.0378	0.011
2.668	0.0378	0.003
2.669	0.0378	-0.003
2.67	0.0378	-0.007
2.671	0.0378	-0.011
2.672	0.0378	-0.012
2.673	0.0378	-0.011
2.674	0.0378	-0.007
2.675	0.0378	-0.002
2.676	0.0378	0.006
2.677	0.0378	0.013
2.678	0.0378	0.019
2.679	0.0378	0.026
2.68	0.0378	0.026
2.681	0.0370	0.027
2.682	0.0353	0.023
2.683	0.0353	0.017
2.684	0.0353	0.012
2.685	0.0353	0.004
2.686	0.0353	-0.001
2.687	0.0353	-0.006
2.688	0.0353	-0.008
2.689	0.0353	-0.008
2.69	0.0353	-0.007
2.691	0.0353	-0.002
2.692	0.0353	0.004
2.693	0.0353	0.011
2.694	0.0353	0.018
2.695	0.0353	0.022
2.696	0.0351	0.027
2.697	0.0347	0.026
2.698	0.0347	0.024
2.699	0.0347	0.019
2.7	0.0347	0.014
2.701	0.0347	0.009
2.702	0.0347	0.003
2.703	0.0347	-0.002
2.704	0.0347	-0.007
2.705	0.0347	-0.007
2.706	0.0347	-0.008
2.707	0.0347	-0.005
2.708	0.0347	0.001
2.709	0.0347	0.007
2.71	0.0347	0.013
2.711	0.0347	0.018
2.712	0.0347	0.023
2.713	0.0474	0.027
2.714	0.0728	0.027
2.715	0.0728	0.024
2.716	0.0728	0.019
2.717	0.0728	0.013
2.718	0.0728	0.006
2.719	0.0728	0.001
2.72	0.0728	-0.005
2.721	0.0728	-0.009
2.722	0.0728	-0.010
2.723	0.0728	-0.010
2.724	0.0728	-0.007
2.725	0.0728	-0.001
2.726	0.0728	0.007
2.727	0.0728	0.019
2.728	0.0728	0.035
2.729	0.0728	0.050
2.73	0.0728	0.063
2.731	0.0655	0.067
2.732	0.0509	0.061
2.733	0.0509	0.052
2.734	0.0509	0.045
2.735	0.0509	0.038
2.736	0.0509	0.038
2.737	0.0509	0.039
2.738	0.0509	0.034
2.739	0.0509	0.022
2.74	0.0509	0.016
2.741	0.0509	0.018
2.742	0.0509	0.020
2.743	0.0509	0.024
2.744	0.0509	0.027
2.745	0.0484	0.028
2.746	0.0434	0.028
2.747	0.0434	0.027
2.748	0.0434	0.025
2.749	0.0434	0.018
2.75	0.0434	0.010
2.751	0.0434	0.003
2.752	0.0434	-0.004
2.753	0.0434	-0.009
2.754	0.0434	-0.013
2.755	0.0434	-0.014
2.756	0.0434	-0.015
2.757	0.0434	-0.012
2.758	0.0434	-0.006
2.759	0.0434	-0.001
2.76	0.0434	0.007
2.761	0.0434	0.013
2.762	0.0434	0.021
2.763	0.0434	0.022
2.764	0.0408	0.023
2.765	0.0356	0.021
2.766	0.0356	0.014
2.767	0.0356	0.010
2.768	0.0356	0.003
2.769	0.0356	-0.002
2.77	0.0356	-0.007
2.771	0.0356	-0.010
2.772	0.0356	-0.012
2.773	0.0356	-0.010
2.774	0.0356	-0.006
2.775	0.0356	-0.002
2.776	0.0356	0.006
2.777	0.0356	0.013
2.778	0.0356	0.018
2.779	0.0356	0.022
2.78	0.0356	0.024
2.781	0.0361	0.025
2.782	0.0372	0.020
2.783	0.0372	0.015
2.784	0.0372	0.009
2.785	0.0372	0.002
2.786	0.0372	-0.004
2.787	0.0372	-0.009
2.788	0.0372	-0.012
2.789	0.0372	-0.013
2.79	0.0372	-0.011
2.791	0.0372	-0.006
2.792	0.0372	0.000
2.793	0.0372	0.007
2.794	0.0372	0.012
2.795	0.0372	0.017
2.796	0.0372	0.021
2.797	0.0394	0.021
2.798	0.0437	0.021
2.799	0.0437	0.015
2.8	0.0437	0.011
2.801	0.0437	0.007
2.802	0.0437	-0.000
2.803	0.0437	-0.006
2.804	0.0437	-0.011
2.805	0.0437	-0.015
2.806	0.0437	-0.019
2.807	0.0437	-0.022
2.808	0.0437	-0.022
2.809	0.0437	-0.015
2.81	0.0451	-0.008
2.811	0.0478	-0.009
2.812	0.0478	-0.009
2.813	0.0478	-0.012
2.814	0.0478	-0.016
2.815	0.0478	-0.017
2.816	0.0478	-0.014
2.817	0.0478	-0.007
2.818	0.0478	-0.001
2.819	0.0478	0.005
2.82	0.0478	0.010
2.821	0.0478	0.013
2.822	0.0478	0.016
2.823	0.0478	0.016
2.824	0.0478	0.018
2.825	0.0478	0.021
2.826	0.0478	0.023
2.827	0.0478	0.028
2.828	0.0478	0.031
2.829	0.0465	0.034
2.83	0.0437	0.034
2.831	0.0437	0.033
2.832	0.0437	0.028
2.833	0.0437	0.021
2.834	0.0437	0.013
2.835	0.0437	0.006
2.836	0.0437	-0.000
2.837	0.0437	-0.004
2.838	0.0437	-0.009
2.839	0.0437	-0.010
2.84	0.0437	-0.006
2.841	0.0437	-0.002
2.842	0.0437	0.001
2.843	0.0437	0.009
2.844	0.0437	0.015
2.845	0.0437	0.019
2.846	0.0437	0.024
2.847	0.0429	0.026
2.848	0.0412	0.024
2.849	0.0412	0.020
2.85	0.0412	0.013
2.851	0.0412	0.006
2.852	0.0412	-0.001
2.853	0.0412	-0.006
2.854	0.0412	-0.012
2.855	0.0412	-0.013
2.856	0.0412	-0.015
2.857	0.0412	-0.013
2.858	0.0412	-0.006
2.859	0.0412	0.000
2.86	0.0412	0.007
2.861	0.0412	0.012
2.862	0.0412	0.017
2.863	0.0412	0.019
2.864	0.0417	0.020
2.865	0.0425	0.016
2.866	0.0425	0.010
2.867	0.0425	0.002
2.868	0.0425	-0.005
2.869	0.0425	-0.011
2.87	0.0425	-0.016
2.871	0.0425	-0.019
2.872	0.0425	-0.022
2.873	0.0425	-0.023
2.874	0.0425	-0.018
2.875	0.0425	-0.012
2.876	0.0425	-0.006
2.877	0.0425	0.003
2.878	0.0425	0.008
2.879	0.0425	0.011
2.88	0.0406	0.014
2.881	0.0369	0.013
2.882	0.0369	0.009
2.883	0.0369	0.003
2.884	0.0369	-0.003
2.885	0.0369	-0.009
2.886	0.0369	-0.014
2.887	0.0369	-0.019
2.888	0.0369	-0.023
2.889	0.0369	-0.023
2.89	0.0369	-0.020
2.891	0.0369	-0.015
2.892	0.0369	-0.010
2.893	0.0369	-0.003
2.894	0.0369	0.003
2.895	0.0369	0.009
2.896	0.0369	0.013
2.897	0.0373	0.013
2.898	0.0381	0.012
2.899	0.0381	0.007
2.9	0.0381	0.001
2.901	0.0381	-0.006
2.902	0.0381	-0.011
2.903	0.0381	-0.016
2.904	0.0381	-0.021
2.905	0.0381	-0.023
2.906	0.0381	-0.023
2.907	0.0381	-0.021
2.908	0.0381	-0.015
2.909	0.0381	-0.009
2.91	0.0381	-0.001
2.911	0.0381	0.005
2.912	0.0381	0.010
2.913	0.0381	0.015
2.914	0.0388	0.017
2.915	0.0400	0.013
2.916	0.0400	0.007
2.917	0.0400	0.001
2.918	0.0400	-0.007
2.919	0.0400	-0.012
2.92	0.0400	-0.018
2.921	0.0400	-0.022
2.922	0.0400	-0.023
2.923	0.0400	-0.022
2.924	0.0400	-0.018
2.925	0.0400	-0.012
2.926	0.0400	-0.005
2.927	0.0400	0.003
2.928	0.0400	0.007
2.929	0.0400	0.013
2.93	0.0400	0.014
2.931	0.0400	0.014
2.932	0.0400	0.011
2.933	0.0400	0.004
2.934	0.0400	-0.002
2.935	0.0400	-0.009
2.936	0.0400	-0.014
2.937	0.0400	-0.022
2.938	0.0400	-0.025
2.939	0.0400	-0.026
2.94	0.0400	-0.019
2.941	0.0400	-0.010
2.942	0.0481	-0.008
2.943	0.0644	-0.013
2.944	0.0644	-0.025
2.945	0.0644	-0.032
2.946	0.0644	-0.024
2.947	0.0644	-0.008
2.948	0.0644	0.010
2.949	0.0644	0.022
2.95	0.0644	0.033
2.951	0.0524	0.036
2.952	0.0284	0.033
2.953	0.0284	0.027
2.954	0.0284	0.018
2.955	0.0284	0.011
2.956	0.0284	0.007
2.957	0.0284	0.007
2.958	0.0284	0.009
2.959	0.0284	0.012
2.96	0.0284	0.018
2.961	0.0284	0.021
2.962	0.0284	0.025
2.963	0.0321	0.029
2.964	0.0394	0.028
2.965	0.0394	0.026
2.966	0.0394	0.020
2.967	0.0394	0.014
2.968	0.0394	0.007
2.969	0.0394	0.002
2.97	0.0394	-0.005
2.971	0.0394	-0.010
2.972	0.0394	-0.011
2.973	0.0394	-0.011
2.974	0.0394	-0.005
2.975	0.0394	0.001
2.976	0.0394	0.006
2.977	0.0394	0.014
2.978	0.0394	0.019
2.979	0.0394	0.024
2.98	0.0393	0.026
2.981	0.0391	0.026
2.982	0.0391	0.022
2.983	0.0391	0.015
2.984	0.0391	0.010
2.985	0.0391	0.002
2.986	0.0391	-0.004
2.987	0.0391	-0.009
2.988	0.0391	-0.012
2.989	0.0391	-0.013
2.99	0.0391	-0.011
2.991	0.0391	-0.006
2.992	0.0391	-0.001
2.993	0.0391	0.006
2.994	0.0391	0.012
2.995	0.0391	0.017
2.996	0.0390	0.021
2.997	0.0388	0.021
2.998	0.0388	0.018
2.999	0.0388	0.013
3	0.0388	0.007
3.001	0.0388	0.001
3.002	0.0388	-0.006
3.003	0.0388	-0.010
3.004	0.0388	-0.016
3.005	0.0388	-0.018
3.006	0.0388	-0.018
3.007	0.0388	-0.015
3.008	0.0388	-0.010
3.009	0.0388	-0.004
3.01	0.0388	0.003
3.011	0.0388	0.008
3.012	0.0388	0.012
3.013	0.0388	0.014
3.014	0.0383	0.014
3.015	0.0375	0.011
3.016	0.0375	0.005
3.017	0.0375	-0.000
3.018	0.0375	-0.006
3.019	0.0375	-0.013
3.02	0.0375	-0.017
3.021	0.0375	-0.021
3.022	0.0375	-0.023
3.023	0.0375	-0.022
3.024	0.0375	-0.016
3.025	0.0375	-0.011
3.026	0.0375	-0.005
3.027	0.0375	0.001
3.028	0.0375	0.006
3.029	0.0375	0.011
3.03	0.0800	0.014
3.031	0.1650	0.012
3.032	0.1650	0.003
3.033	0.1650	-0.014
3.034	0.1650	-0.026
3.035	0.1650	-0.039
3.036	0.1650	-0.051
3.037	0.1650	-0.067
3.038	0.1650	-0.083
3.039	0.1650	-0.096
3.04	0.1650	-0.109
3.041	0.1650	-0.111
3.042	0.1650	-0.097
3.043	0.1650	-0.071
3.044	0.1650	-0.041
3.045	0.1650	-0.012
3.046	0.1650	0.012
3.047	0.1650	0.031
3.048	0.1650	0.048
3.049	0.1650	0.054
3.05	0.1220	0.056
3.051	0.0359	0.052
3.052	0.0359	0.047
3.053	0.0359	0.038
3.054	0.0359	0.030
3.055	0.0359	0.024
3.056	0.0359	0.020
3.057	0.0359	0.020
3.058	0.0359	0.023
3.059	0.0359	0.027
3.06	0.0359	0.032
3.061	0.0359	0.034
3.062	0.0359	0.038
3.063	0.0397	0.039
3.064	0.0472	0.038
3.065	0.0472	0.034
3.066	0.0472	0.029
3.067	0.0472	0.022
3.068	0.0472	0.014
3.069	0.0472	0.007
3.07	0.0472	0.002
3.071	0.0472	-0.004
3.072	0.0472	-0.007
3.073	0.0472	-0.008
3.074	0.0472	-0.004
3.075	0.0472	0.000
3.076	0.0472	0.007
3.077	0.0472	0.014
3.078	0.0472	0.019
3.079	0.0472	0.024
3.08	0.0458	0.025
3.081	0.0431	0.024
3.082	0.0431	0.020
3.083	0.0431	0.012
3.084	0.0431	0.005
3.085	0.0431	-0.002
3.086	0.0431	-0.007
3.087	0.0431	-0.014
3.088	0.0431	-0.017
3.089	0.0431	-0.018
3.09	0.0431	-0.017
3.091	0.0431	-0.011
3.092	0.0431	-0.005
3.093	0.0431	0.000
3.094	0.0431	0.005
3.095	0.0431	0.009
3.096	0.0431	0.012
3.097	0.0419	0.013
3.098	0.0394	0.011
3.099	0.0394	0.005
3.1	0.0394	0.000
3.101	0.0394	-0.007
3.102	0.0394	-0.014
3.103	0.0394	-0.019
3.104	0.0394	-0.024
3.105	0.0394	-0.026
3.106	0.0394	-0.026
3.107	0.0394	-0.024
3.108	0.0394	-0.019
3.109	0.0394	-0.013
3.11	0.0394	-0.006
3.111	0.0394	0.001
3.112	0.0394	0.007
3.113	0.0381	0.010
3.114	0.0356	0.010
3.115	0.0356	0.007
3.116	0.0356	0.002
3.117	0.0356	-0.003
3.118	0.0356	-0.010
3.119	0.0356	-0.016
3.12	0.0356	-0.021
3.121	0.0356	-0.025
3.122	0.0356	-0.025
3.123	0.0356	-0.026
3.124	0.0356	-0.021
3.125	0.0356	-0.016
3.126	0.0356	-0.009
3.127	0.0356	-0.001
3.128	0.0356	0.004
3.129	0.0356	0.008
3.13	0.0358	0.010
3.131	0.0362	0.010
3.132	0.0362	0.006
3.133	0.0362	0.001
3.134	0.0362	-0.003
3.135	0.0362	-0.011
3.136	0.0362	-0.015
3.137	0.0362	-0.020
3.138	0.0362	-0.023
3.139	0.0362	-0.024
3.14	0.0362	-0.023
3.141	0.0362	-0.019
3.142	0.0362	-0.012
3.143	0.0362	-0.006
3.144	0.0362	0.002
3.145	0.0362	0.007
3.146	0.0362	0.012
3.147	0.0366	0.014
3.148	0.0372	0.013
3.149	0.0372	0.008
3.15	0.0372	0.002
3.151	0.0372	-0.005
3.152	0.0372	-0.011
3.153	0.0372	-0.017
3.154	0.0372	-0.021
3.155	0.0372	-0.022
3.156	0.0372	-0.023
3.157	0.0372	-0.019
3.158	0.0372	-0.013
3.159	0.0372	-0.008
3.16	0.0372	-0.001
3.161	0.0372	0.005
3.162	0.0372	0.010
3.163	0.0372	0.014
3.164	0.0374	0.015
3.165	0.0378	0.013
3.166	0.0378	0.007
3.167	0.0378	0.001
3.168	0.0378	-0.005
3.169	0.0378	-0.012
3.17	0.0378	-0.018
3.171	0.0378	-0.020
3.172	0.0378	-0.023
3.173	0.0378	-0.023
3.174	0.0378	-0.018
3.175	0.0378	-0.012
3.176	0.0378	-0.004
3.177	0.0378	0.003
3.178	0.0378	0.008
3.179	0.0378	0.013
3.18	0.0411	0.017
3.181	0.0478	0.016
3.182	0.0478	0.012
3.183	0.0478	0.007
3.184	0.0478	0.001
3.185	0.0478	-0.007
3.186	0.0478	-0.012
3.187	0.0478	-0.015
3.188	0.0478	-0.015
3.189	0.0478	-0.010
3.19	0.0478	-0.003
3.191	0.0478	0.007
3.192	0.0478	0.017
3.193	0.0478	0.025
3.194	0.0478	0.033
3.195	0.0502	0.038
3.196	0.0550	0.037
3.197	0.0550	0.033
3.198	0.0550	0.031
3.199	0.0550	0.022
3.2	0.0550	0.017
3.201	0.0550	0.013
3.202	0.0550	0.005
3.203	0.0550	-0.001
3.204	0.0550	-0.007
3.205	0.0550	-0.013
3.206	0.0550	-0.017
3.207	0.0550	-0.017
3.208	0.0550	-0.013
3.209	0.0550	-0.010
3.21	0.0550	-0.002
3.211	0.0550	0.004
3.212	0.0550	0.008
3.213	0.0550	0.011
3.214	0.0494	0.011
3.215	0.0381	0.008
3.216	0.0381	0.003
3.217	0.0381	-0.002
3.218	0.0381	-0.009
3.219	0.0381	-0.014
3.22	0.0381	-0.019
3.221	0.0381	-0.023
3.222	0.0381	-0.023
3.223	0.0381	-0.022
3.224	0.0381	-0.018
3.225	0.0381	-0.013
3.226	0.0381	-0.006
3.227	0.0381	0.001
3.228	0.0381	0.008
3.229	0.0381	0.013
3.23	0.0381	0.015
3.231	0.0374	0.016
3.232	0.0359	0.013
3.233	0.0359	0.007
3.234	0.0359	0.002
3.235	0.0359	-0.005
3.236	0.0359	-0.011
3.237	0.0359	-0.015
3.238	0.0359	-0.018
3.239	0.0359	-0.020
3.24	0.0359	-0.018
3.241	0.0359	-0.012
3.242	0.0359	-0.007
3.243	0.0359	-0.000
3.244	0.0359	0.005
3.245	0.0359	0.010
3.246	0.0359	0.014
3.247	0.0365	0.016
3.248	0.0375	0.015
3.249	0.0375	0.009
3.25	0.0375	0.004
3.251	0.0375	-0.003
3.252	0.0375	-0.010
3.253	0.0375	-0.015
3.254	0.0375	-0.020
3.255	0.0375	-0.022
3.256	0.0375	-0.021
3.257	0.0375	-0.018
3.258	0.0375	-0.012
3.259	0.0375	-0.006
3.26	0.0375	0.001
3.261	0.0375	0.005
3.262	0.0375	0.011
3.263	0.0375	0.013
3.264	0.0371	0.013
3.265	0.0363	0.012
3.266	0.0363	0.006
3.267	0.0363	0.000
3.268	0.0363	-0.007
3.269	0.0363	-0.014
3.27	0.0363	-0.018
3.271	0.0363	-0.022
3.272	0.0363	-0.023
3.273	0.0363	-0.022
3.274	0.0363	-0.017
3.275	0.0363	-0.011
3.276	0.0363	-0.007
3.277	0.0363	0.000
3.278	0.0363	0.006
3.279	0.0363	0.011
3.28	0.0363	0.013
3.281	0.0368	0.014
3.282	0.0378	0.009
3.283	0.0378	0.002
3.284	0.0378	-0.004
3.285	0.0378	-0.011
3.286	0.0378	-0.016
3.287	0.0378	-0.019
3.288	0.0378	-0.023
3.289	0.0378	-0.024
3.29	0.0378	-0.023
3.291	0.0378	-0.018
3.292	0.0378	-0.012
3.293	0.0378	-0.004
3.294	0.0378	0.002
3.295	0.0378	0.008
3.296	0.0372	0.013
3.297	0.0359	0.013
3.298	0.0359	0.011
3.299	0.0359	0.007
3.3	0.0359	0.002
3.301	0.0359	-0.004
3.302	0.0359	-0.011
3.303	0.0359	-0.016
3.304	0.0359	-0.020
3.305	0.0359	-0.022
3.306	0.0359	-0.023
3.307	0.0359	-0.019
3.308	0.0359	-0.013
3.309	0.0359	-0.008
3.31	0.0359	-0.001
3.311	0.0359	0.003
3.312	0.0359	0.008
3.313	0.0359	0.011
3.314	0.0362	0.013
3.315	0.0369	0.012
3.316	0.0369	0.007
3.317	0.0369	0.001
3.318	0.0369	-0.005
3.319	0.0369	-0.012
3.32	0.0369	-0.018
3.321	0.0369	-0.022
3.322	0.0369	-0.024
3.323	0.0369	-0.024
3.324	0.0369	-0.019
3.325	0.0369	-0.014
3.326	0.0369	-0.007
3.327	0.0369	0.000
3.328	0.0369	0.007
3.329	0.0369	0.012
3.33	0.0366	0.015
3.331	0.0359	0.014
3.332	0.0359	0.011
3.333	0.0359	0.006
3.334	0.0359	0.001
3.335	0.0359	-0.005
3.336	0.0359	-0.011
3.337	0.0359	-0.017
3.338	0.0359	-0.020
3.339	0.0359	-0.021
3.34	0.0359	-0.019
3.341	0.0359	-0.014
3.342	0.0359	-0.008
3.343	0.0359	-0.002
3.344	0.0359	0.005
3.345	0.0359	0.010
3.346	0.0359	0.014
3.347	0.0361	0.015
3.348	0.0366	0.015
3.349	0.0366	0.010
3.35	0.0366	0.005
3.351	0.0366	-0.001
3.352	0.0366	-0.009
3.353	0.0366	-0.014
3.354	0.0366	-0.017
3.355	0.0366	-0.021
3.356	0.0366	-0.021
3.357	0.0366	-0.018
3.358	0.0366	-0.013
3.359	0.0366	-0.007
3.36	0.0366	0.000
3.361	0.0366	0.007
3.362	0.0366	0.011
3.363	0.0366	0.015
3.364	0.0456	0.016
3.365	0.0637	0.015
3.366	0.0637	0.009
3.367	0.0637	0.003
3.368	0.0637	-0.003
3.369	0.0637	-0.008
3.37	0.0637	-0.013
3.371	0.0637	-0.018
3.372	0.0637	-0.019
3.373	0.0637	-0.020
3.374	0.0637	-0.015
3.375	0.0637	-0.010
3.376	0.0637	-0.004
3.377	0.0637	0.005
3.378	0.0637	0.017
3.379	0.0637	0.029
3.38	0.0637	0.037
3.381	0.0637	0.044
3.382	0.0596	0.044
3.383	0.0512	0.036
3.384	0.0512	0.025
3.385	0.0512	0.014
3.386	0.0512	0.002
3.387	0.0512	-0.007
3.388	0.0512	-0.003
3.389	0.0512	0.001
3.39	0.0512	-0.000
3.391	0.0512	0.001
3.392	0.0512	0.003
3.393	0.0512	0.010
3.394	0.0512	0.015
3.395	0.0512	0.019
3.396	0.0535	0.022
3.397	0.0581	0.022
3.398	0.0581	0.018
3.399	0.0581	0.012
3.4	0.0581	0.006
3.401	0.0581	0.001
3.402	0.0581	-0.007
3.403	0.0581	-0.015
3.404	0.0581	-0.025
3.405	0.0581	-0.032
3.406	0.0581	-0.036
3.407	0.0581	-0.034
3.408	0.0581	-0.026
3.409	0.0581	-0.016
3.41	0.0581	-0.006
3.411	0.0581	0.004
3.412	0.0581	0.013
3.413	0.0581	0.018
3.414	0.0504	0.022
3.415	0.0350	0.022
3.416	0.0350	0.017
3.417	0.0350	0.011
3.418	0.0350	0.006
3.419	0.0350	-0.001
3.42	0.0350	-0.007
3.421	0.0350	-0.010
3.422	0.0350	-0.013
3.423	0.0350	-0.013
3.424	0.0350	-0.008
3.425	0.0350	-0.004
3.426	0.0350	0.002
3.427	0.0350	0.009
3.428	0.0350	0.014
3.429	0.0350	0.017
3.43	0.0357	0.020
3.431	0.0372	0.019
3.432	0.0372	0.016
3.433	0.0372	0.011
3.434	0.0372	0.006
3.435	0.0372	-0.002
3.436	0.0372	-0.007
3.437	0.0372	-0.013
3.438	0.0372	-0.016
3.439	0.0372	-0.017
3.44	0.0372	-0.018
3.441	0.0372	-0.013
3.442	0.0372	-0.008
3.443	0.0372	-0.001
3.444	0.0372	0.007
3.445	0.0372	0.013
3.446	0.0372	0.018
3.447	0.0374	0.018
3.448	0.0378	0.018
3.449	0.0378	0.014
3.45	0.0378	0.008
3.451	0.0378	0.002
3.452	0.0378	-0.006
3.453	0.0378	-0.011
3.454	0.0378	-0.017
3.455	0.0378	-0.019
3.456	0.0378	-0.019
3.457	0.0378	-0.018
3.458	0.0378	-0.013
3.459	0.0378	-0.007
3.46	0.0378	-0.000
3.461	0.0378	0.007
3.462	0.0378	0.011
3.463	0.0378	0.015
3.464	0.0369	0.015
3.465	0.0350	0.014
3.466	0.0350	0.009
3.467	0.0350	0.005
3.468	0.0350	-0.002
3.469	0.0350	-0.009
3.47	0.0350	-0.013
3.471	0.0350	-0.018
3.472	0.0350	-0.020
3.473	0.0350	-0.020
3.474	0.0350	-0.017
3.475	0.0350	-0.012
3.476	0.0350	-0.007
3.477	0.0350	0.000
3.478	0.0350	0.005
3.479	0.0350	0.010
3.48	0.0350	0.013
3.481	0.0347	0.013
3.482	0.0341	0.010
3.483	0.0341	0.006
3.484	0.0341	0.000
3.485	0.0341	-0.005
3.486	0.0341	-0.010
3.487	0.0341	-0.017
3.488	0.0341	-0.020
3.489	0.0341	-0.020
3.49	0.0341	-0.020
3.491	0.0341	-0.017
3.492	0.0341	-0.011
3.493	0.0341	-0.004
3.494	0.0341	0.004
3.495	0.0341	0.009
3.496	0.0341	0.012
3.497	0.0341	0.014
3.498	0.0346	0.014
3.499	0.0356	0.010
3.5	0.0356	0.005
3.501	0.0356	-0.000
3.502	0.0356	-0.007
3.503	0.0356	-0.013
3.504	0.0356	-0.016
3.505	0.0356	-0.021
3.506	0.0356	-0.020
3.507	0.0356	-0.018
3.508	0.0356	-0.013
3.509	0.0356	-0.007
3.51	0.0356	0.000
3.511	0.0356	0.005
3.512	0.0356	0.012
3.513	0.0356	0.015
3.514	0.0414	0.016
3.515	0.0528	0.015
3.516	0.0528	0.010
3.517	0.0528	0.004
3.518	0.0528	-0.002
3.519	0.0528	-0.009
3.52	0.0528	-0.016
3.521	0.0528	-0.023
3.522	0.0528	-0.026
3.523	0.0528	-0.027
3.524	0.0528	-0.022
3.525	0.0528	-0.014
3.526	0.0528	-0.006
3.527	0.0528	0.003
3.528	0.0528	0.013
3.529	0.0528	0.020
3.53	0.0528	0.026
3.531	0.0640	0.027
3.532	0.0863	0.025
3.533	0.0863	0.017
3.534	0.0863	0.008
3.535	0.0863	-0.004
3.536	0.0863	-0.015
3.537	0.0863	-0.025
3.538	0.0863	-0.032
3.539	0.0863	-0.033
3.54	0.0863	-0.027
3.541	0.0863	-0.013
3.542	0.0863	0.006
3.543	0.0863	0.028
3.544	0.0863	0.042
3.545	0.0863	0.048
3.546	0.0863	0.052
3.547	0.0863	0.053
3.548	0.0845	0.054
3.549	0.0809	0.050
3.55	0.0809	0.045
3.551	0.0809	0.031
3.552	0.0809	0.011
3.553	0.0809	-0.006
3.554	0.0809	-0.018
3.555	0.0809	-0.024
3.556	0.0809	-0.027
3.557	0.0809	-0.026
3.558	0.0809	-0.021
3.559	0.0809	-0.013
3.56	0.0809	-0.005
3.561	0.0809	0.004
3.562	0.0809	0.013
3.563	0.0809	0.018
3.564	0.0731	0.020
3.565	0.0575	0.020
3.566	0.0575	0.014
3.567	0.0575	0.007
3.568	0.0575	-0.003
3.569	0.0575	-0.013
3.57	0.0575	-0.022
3.571	0.0575	-0.028
3.572	0.0575	-0.033
3.573	0.0575	-0.033
3.574	0.0575	-0.027
3.575	0.0575	-0.021
3.576	0.0575	-0.011
3.577	0.0575	0.001
3.578	0.0575	0.011
3.579	0.0575	0.020
3.58	0.0575	0.024
3.581	0.0540	0.026
3.582	0.0469	0.023
3.583	0.0469	0.016
3.584	0.0469	0.008
3.585	0.0469	-0.002
3.586	0.0469	-0.008
3.587	0.0469	-0.014
3.588	0.0469	-0.018
3.589	0.0469	-0.021
3.59	0.0469	-0.019
3.591	0.0469	-0.013
3.592	0.0469	-0.008
3.593	0.0469	-0.001
3.594	0.0469	0.006
3.595	0.0469	0.011
3.596	0.0469	0.016
3.597	0.0428	0.017
3.598	0.0347	0.015
3.599	0.0347	0.012
3.6	0.0347	0.006
3.601	0.0347	0.000
3.602	0.0347	-0.007
3.603	0.0347	-0.011
3.604	0.0347	-0.015
3.605	0.0347	-0.018
3.606	0.0347	-0.018
3.607	0.0347	-0.018
3.608	0.0347	-0.013
3.609	0.0347	-0.009
3.61	0.0347	-0.001
3.611	0.0347	0.007
3.612	0.0347	0.012
3.613	0.0347	0.016
3.614	0.0356	0.018
3.615	0.0375	0.016
3.616	0.0375	0.011
3.617	0.0375	0.005
3.618	0.0375	-0.002
3.619	0.0375	-0.008
3.62	0.0375	-0.013
3.621	0.0375	-0.018
3.622	0.0375	-0.020
3.623	0.0375	-0.019
3.624	0.0375	-0.017
3.625	0.0375	-0.012
3.626	0.0375	-0.005
3.627	0.0375	0.002
3.628	0.0375	0.006
3.629	0.0375	0.012
3.63	0.0375	0.014
3.631	0.0421	0.015
3.632	0.0512	0.011
3.633	0.0512	0.006
3.634	0.0512	-0.001
3.635	0.0512	-0.007
3.636	0.0512	-0.013
3.637	0.0512	-0.019
3.638	0.0512	-0.022
3.639	0.0512	-0.019
3.64	0.0512	-0.011
3.641	0.0512	0.006
3.642	0.0512	0.021
3.643	0.0512	0.029
3.644	0.0371	0.030
3.645	0.0088	0.024
3.646	0.0088	0.021
3.647	0.0088	0.026
3.648	0.0207	0.033
3.649	0.0447	0.027
3.65	0.0447	0.020
3.651	0.0447	0.015
3.652	0.0447	0.009
3.653	0.0447	0.004
3.654	0.0447	-0.003
3.655	0.0447	-0.010
3.656	0.0447	-0.012
3.657	0.0447	-0.011
3.658	0.0447	-0.008
3.659	0.0447	-0.005
3.66	0.0447	0.002
3.661	0.0447	0.006
3.662	0.0447	0.011
3.663	0.0447	0.014
3.664	0.0418	0.014
3.665	0.0359	0.011
3.666	0.0359	0.006
3.667	0.0359	0.000
3.668	0.0359	-0.007
3.669	0.0359	-0.011
3.67	0.0359	-0.017
3.671	0.0359	-0.022
3.672	0.0359	-0.022
3.673	0.0359	-0.021
3.674	0.0359	-0.016
3.675	0.0359	-0.010
3.676	0.0359	-0.003
3.677	0.0359	0.003
3.678	0.0359	0.009
3.679	0.0359	0.013
3.68	0.0358	0.016
3.681	0.0356	0.015
3.682	0.0356	0.012
3.683	0.0356	0.007
3.684	0.0356	0.002
3.685	0.0356	-0.004
3.686	0.0356	-0.010
3.687	0.0356	-0.015
3.688	0.0356	-0.017
3.689	0.0356	-0.020
3.69	0.0356	-0.018
3.691	0.0356	-0.014
3.692	0.0356	-0.010
3.693	0.0356	-0.002
3.694	0.0356	0.006
3.695	0.0356	0.011
3.696	0.0356	0.016
3.697	0.0358	0.018
3.698	0.0362	0.016
3.699	0.0362	0.012
3.7	0.0362	0.006
3.701	0.0362	0.000
3.702	0.0362	-0.006
3.703	0.0362	-0.011
3.704	0.0362	-0.016
3.705	0.0362	-0.018
3.706	0.0362	-0.018
3.707	0.0362	-0.017
3.708	0.0362	-0.011
3.709	0.0362	-0.006
3.71	0.0362	0.000
3.711	0.0362	0.006
3.712	0.0362	0.011
3.713	0.0362	0.015
3.714	0.0365	0.016
3.715	0.0369	0.015
3.716	0.0369	0.009
3.717	0.0369	0.004
3.718	0.0369	-0.004
3.719	0.0369	-0.009
3.72	0.0369	-0.014
3.721	0.0369	-0.019
3.722	0.0369	-0.020
3.723	0.0369	-0.021
3.724	0.0369	-0.017
3.725	0.0369	-0.012
3.726	0.0369	-0.004
3.727	0.0369	0.004
3.728	0.0369	0.009
3.729	0.0369	0.013
3.73	0.0365	0.017
3.731	0.0356	0.016
3.732	0.0356	0.013
3.733	0.0356	0.007
3.734	0.0356	0.003
3.735	0.0356	-0.004
3.736	0.0356	-0.009
3.737	0.0356	-0.014
3.738	0.0356	-0.018
3.739	0.0356	-0.019
3.74	0.0356	-0.017
3.741	0.0356	-0.013
3.742	0.0356	-0.007
3.743	0.0356	-0.001
3.744	0.0356	0.004
3.745	0.0356	0.010
3.746	0.0356	0.015
3.747	0.0356	0.015
3.748	0.0359	0.015
3.749	0.0366	0.011
3.75	0.0366	0.005
3.751	0.0366	-0.001
3.752	0.0366	-0.007
3.753	0.0366	-0.013
3.754	0.0366	-0.018
3.755	0.0366	-0.019
3.756	0.0366	-0.021
3.757	0.0366	-0.018
3.758	0.0366	-0.013
3.759	0.0366	-0.007
3.76	0.0366	0.000
3.761	0.0366	0.007
3.762	0.0366	0.012
3.763	0.0366	0.016
3.764	0.0441	0.017
3.765	0.0591	0.015
3.766	0.0591	0.010
3.767	0.0591	0.004
3.768	0.0591	-0.003
3.769	0.0591	-0.009
3.77	0.0591	-0.014
3.771	0.0591	-0.020
3.772	0.0591	-0.024
3.773	0.0591	-0.027
3.774	0.0591	-0.022
3.775	0.0591	-0.016
3.776	0.0591	-0.010
3.777	0.0591	-0.003
3.778	0.0591	0.005
3.779	0.0591	0.014
3.78	0.0591	0.023
3.781	0.0591	0.033
3.782	0.0510	0.033
3.783	0.0350	0.029
3.784	0.0350	0.024
3.785	0.0350	0.019
3.786	0.0350	0.021
3.787	0.0350	0.020
3.788	0.0350	0.015
3.789	0.0350	0.007
3.79	0.0350	0.001
3.791	0.0350	-0.002
3.792	0.0350	-0.001
3.793	0.0350	0.001
3.794	0.0350	0.004
3.795	0.0350	0.009
3.796	0.0350	0.011
3.797	0.0349	0.015
3.798	0.0347	0.014
3.799	0.0347	0.009
3.8	0.0347	0.003
3.801	0.0347	-0.002
3.802	0.0347	-0.009
3.803	0.0347	-0.013
3.804	0.0347	-0.017
3.805	0.0347	-0.018
3.806	0.0347	-0.018
3.807	0.0347	-0.015
3.808	0.0347	-0.008
3.809	0.0347	-0.003
3.81	0.0347	0.004
3.811	0.0347	0.010
3.812	0.0347	0.017
3.813	0.0358	0.019
3.814	0.0381	0.019
3.815	0.0381	0.018
3.816	0.0381	0.013
3.817	0.0381	0.007
3.818	0.0381	0.000
3.819	0.0381	-0.005
3.82	0.0381	-0.010
3.821	0.0381	-0.016
3.822	0.0381	-0.017
3.823	0.0381	-0.018
3.824	0.0381	-0.015
3.825	0.0381	-0.009
3.826	0.0381	-0.002
3.827	0.0381	0.007
3.828	0.0381	0.014
3.829	0.0381	0.019
3.83	0.0381	0.020
3.831	0.0389	0.020
3.832	0.0403	0.016
3.833	0.0403	0.010
3.834	0.0403	0.004
3.835	0.0403	-0.003
3.836	0.0403	-0.010
3.837	0.0403	-0.014
3.838	0.0403	-0.018
3.839	0.0403	-0.020
3.84	0.0403	-0.019
3.841	0.0403	-0.014
3.842	0.0403	-0.007
3.843	0.0403	-0.001
3.844	0.0403	0.005
3.845	0.0403	0.009
3.846	0.0403	0.013
3.847	0.0390	0.015
3.848	0.0362	0.013
3.849	0.0362	0.009
3.85	0.0362	0.004
3.851	0.0362	-0.003
3.852	0.0362	-0.010
3.853	0.0362	-0.016
3.854	0.0362	-0.020
3.855	0.0362	-0.022
3.856	0.0362	-0.021
3.857	0.0362	-0.018
3.858	0.0362	-0.014
3.859	0.0362	-0.007
3.86	0.0362	-0.001
3.861	0.0362	0.004
3.862	0.0362	0.008
3.863	0.0362	0.009
3.864	0.0376	0.010
3.865	0.0403	0.009
3.866	0.0403	0.007
3.867	0.0403	0.006
3.868	0.0403	0.003
3.869	0.0403	0.000
3.87	0.0403	-0.001
3.871	0.0403	-0.005
3.872	0.0403	-0.015
3.873	0.0403	-0.016
3.874	0.0403	-0.003
3.875	0.0403	0.004
3.876	0.0403	0.009
3.877	0.0403	0.017
3.878	0.0403	0.024
3.879	0.0453	0.029
3.88	0.0553	0.029
3.881	0.0553	0.025
3.882	0.0553	0.020
3.883	0.0553	0.012
3.884	0.0553	0.004
3.885	0.0553	-0.006
3.886	0.0553	-0.012
3.887	0.0553	-0.019
3.888	0.0553	-0.026
3.889	0.0553	-0.027
3.89	0.0553	-0.026
3.891	0.0553	-0.022
3.892	0.0553	-0.016
3.893	0.0553	-0.009
3.894	0.0553	-0.002
3.895	0.0553	0.005
3.896	0.0553	0.009
3.897	0.0553	0.011
3.898	0.0503	0.012
3.899	0.0403	0.007
3.9	0.0403	0.002
3.901	0.0403	-0.003
3.902	0.0403	-0.011
3.903	0.0403	-0.016
3.904	0.0403	-0.021
3.905	0.0403	-0.024
3.906	0.0403	-0.025
3.907	0.0403	-0.022
3.908	0.0403	-0.015
3.909	0.0403	-0.009
3.91	0.0403	-0.001
3.911	0.0403	0.006
3.912	0.0403	0.011
3.913	0.0403	0.016
3.914	0.0393	0.017
3.915	0.0372	0.014
3.916	0.0372	0.009
3.917	0.0372	0.003
3.918	0.0372	-0.003
3.919	0.0372	-0.009
3.92	0.0372	-0.014
3.921	0.0372	-0.019
3.922	0.0372	-0.021
3.923	0.0372	-0.020
3.924	0.0372	-0.016
3.925	0.0372	-0.011
3.926	0.0372	-0.005
3.927	0.0372	0.003
3.928	0.0372	0.007
3.929	0.0372	0.013
3.93	0.0373	0.014
3.931	0.0375	0.013
3.932	0.0375	0.011
3.933	0.0375	0.004
3.934	0.0375	-0.001
3.935	0.0375	-0.008
3.936	0.0375	-0.014
3.937	0.0375	-0.019
3.938	0.0375	-0.023
3.939	0.0375	-0.024
3.94	0.0375	-0.023
3.941	0.0375	-0.018
3.942	0.0375	-0.012
3.943	0.0375	-0.006
3.944	0.0375	0.001
3.945	0.0375	0.007
3.946	0.0375	0.011
3.947	0.0370	0.013
3.948	0.0359	0.012
3.949	0.0359	0.007
3.95	0.0359	0.003
3.951	0.0359	-0.003
3.952	0.0359	-0.011
3.953	0.0359	-0.016
3.954	0.0359	-0.021
3.955	0.0359	-0.022
3.956	0.0359	-0.023
3.957	0.0359	-0.020
3.958	0.0359	-0.015
3.959	0.0359	-0.008
3.96	0.0359	0.000
3.961	0.0359	0.005
3.962	0.0359	0.011
3.963	0.0359	0.013
3.964	0.0361	0.014
3.965	0.0366	0.014
3.966	0.0366	0.008
3.967	0.0366	0.003
3.968	0.0366	-0.003
3.969	0.0366	-0.007
3.97	0.0366	-0.013
3.971	0.0366	-0.017
3.972	0.0366	-0.018
3.973	0.0366	-0.020
3.974	0.0366	-0.014
3.975	0.0366	-0.008
3.976	0.0366	-0.003
3.977	0.0366	0.006
3.978	0.0366	0.012
3.979	0.0366	0.017
3.98	0.0372	0.020
3.981	0.0384	0.020
3.982	0.0384	0.016
3.983	0.0384	0.008
3.984	0.0384	0.003
3.985	0.0384	-0.004
3.986	0.0384	-0.010
3.987	0.0384	-0.013
3.988	0.0384	-0.017
3.989	0.0384	-0.018
3.99	0.0384	-0.018
3.991	0.0384	-0.013
3.992	0.0384	-0.007
3.993	0.0384	0.001
3.994	0.0384	0.007
3.995	0.0384	0.011
3.996	0.0384	0.017
3.997	0.0388	0.018
3.998	0.0394	0.017
3.999	0.0394	0.013
4	0.0394	0.007
4.001	0.0394	0.000
4.002	0.0394	-0.006
4.003	0.0394	-0.012
4.004	0.0394	-0.018
4.005	0.0394	-0.022
4.006	0.0394	-0.021
4.007	0.0394	-0.019
4.008	0.0394	-0.014
4.009	0.0394	-0.008
4.01	0.0394	-0.002
4.011	0.0394	0.006
4.012	0.0394	0.012
4.013	0.0394	0.014
4.014	0.0555	0.014
4.015	0.0878	0.013
4.016	0.0878	0.007
4.017	0.0878	-0.001
4.018	0.0878	-0.010
4.019	0.0878	-0.018
4.02	0.0878	-0.025
4.021	0.0878	-0.031
4.022	0.0878	-0.036
4.023	0.0878	-0.031
4.024	0.0878	-0.017
4.025	0.0878	0.005
4.026	0.0878	0.026
4.027	0.0878	0.043
4.028	0.0878	0.052
4.029	0.0834	0.059
4.03	0.0747	0.052
4.031	0.0747	0.043
4.032	0.0747	0.037
4.033	0.0747	0.028
4.034	0.0747	0.019
4.035	0.0747	0.008
4.036	0.0747	0.000
4.037	0.0747	-0.008
4.038	0.0747	-0.013
4.039	0.0747	-0.016
4.04	0.0747	-0.015
4.041	0.0747	-0.011
4.042	0.0747	-0.006
4.043	0.0747	-0.001
4.044	0.0747	0.006
4.045	0.0747	0.010
4.046	0.0747	0.013
4.047	0.0747	0.014
4.048	0.0621	0.015
4.049	0.0369	0.010
4.05	0.0369	0.003
4.051	0.0369	-0.001
4.052	0.0369	-0.007
4.053	0.0369	-0.013
4.054	0.0369	-0.017
4.055	0.0369	-0.019
4.056	0.0369	-0.018
4.057	0.0369	-0.014
4.058	0.0369	-0.009
4.059	0.0369	-0.003
4.06	0.0369	0.004
4.061	0.0369	0.010
4.062	0.0369	0.014
4.063	0.0369	0.018
4.064	0.0369	0.019
4.065	0.0369	0.017
4.066	0.0369	0.012
4.067	0.0369	0.007
4.068	0.0369	0.001
4.069	0.0369	-0.005
4.07	0.0369	-0.011
4.071	0.0369	-0.016
4.072	0.0369	-0.018
4.073	0.0369	-0.016
4.074	0.0369	-0.013
4.075	0.0369	-0.009
4.076	0.0369	-0.002
4.077	0.0369	0.005
4.078	0.0369	0.012
4.079	0.0369	0.018
4.08	0.0369	0.019
4.081	0.0395	0.020
4.082	0.0447	0.017
4.083	0.0447	0.010
4.084	0.0447	0.004
4.085	0.0447	-0.003
4.086	0.0447	-0.009
4.087	0.0447	-0.016
4.088	0.0447	-0.018
4.089	0.0447	-0.019
4.09	0.0447	-0.019
4.091	0.0447	-0.014
4.092	0.0447	-0.010
4.093	0.0447	-0.004
4.094	0.0447	0.003
4.095	0.0447	0.010
4.096	0.0447	0.018
4.097	0.0447	0.026
4.098	0.0456	0.029
4.099	0.0475	0.026
4.1	0.0475	0.017
4.101	0.0475	0.005
4.102	0.0475	-0.005
4.103	0.0475	-0.007
4.104	0.0475	-0.014
4.105	0.0475	-0.019
4.106	0.0475	-0.013
4.107	0.0475	-0.004
4.108	0.0475	0.006
4.109	0.0475	0.015
4.11	0.0475	0.022
4.111	0.0475	0.025
4.112	0.0475	0.028
4.113	0.0482	0.030
4.114	0.0497	0.028
4.115	0.0497	0.024
4.116	0.0497	0.017
4.117	0.0497	0.009
4.118	0.0497	0.001
4.119	0.0497	-0.006
4.12	0.0497	-0.014
4.121	0.0497	-0.018
4.122	0.0497	-0.019
4.123	0.0497	-0.020
4.124	0.0497	-0.016
4.125	0.0497	-0.010
4.126	0.0497	-0.004
4.127	0.0497	0.003
4.128	0.0497	0.009
4.129	0.0497	0.014
4.13	0.0453	0.018
4.131	0.0366	0.017
4.132	0.0366	0.015
4.133	0.0366	0.008
4.134	0.0366	0.003
4.135	0.0366	-0.003
4.136	0.0366	-0.008
4.137	0.0366	-0.014
4.138	0.0366	-0.018
4.139	0.0366	-0.019
4.14	0.0366	-0.016
4.141	0.0366	-0.012
4.142	0.0366	-0.007
4.143	0.0366	0.000
4.144	0.0366	0.008
4.145	0.0366	0.012
4.146	0.0366	0.018
4.147	0.0372	0.019
4.148	0.0384	0.018
4.149	0.0384	0.014
4.15	0.0384	0.007
4.151	0.0384	0.001
4.152	0.0384	-0.005
4.153	0.0384	-0.012
4.154	0.0384	-0.017
4.155	0.0384	-0.019
4.156	0.0384	-0.020
4.157	0.0384	-0.019
4.158	0.0384	-0.012
4.159	0.0384	-0.007
4.16	0.0384	0.000
4.161	0.0384	0.007
4.162	0.0384	0.012
4.163	0.0378	0.015
4.164	0.0366	0.015
4.165	0.0366	0.015
4.166	0.0366	0.008
4.167	0.0366	0.003
4.168	0.0366	-0.004
4.169	0.0366	-0.009
4.17	0.0366	-0.015
4.171	0.0366	-0.020
4.172	0.0366	-0.022
4.173	0.0366	-0.022
4.174	0.0366	-0.017
4.175	0.0366	-0.011
4.176	0.0366	-0.006
4.177	0.0366	0.001
4.178	0.0366	0.006
4.179	0.0366	0.011
4.18	0.1328	0.014
4.181	0.3253	0.013
4.182	0.3253	0.011
4.183	0.3253	0.005
4.184	0.3253	-0.002
4.185	0.3253	-0.007
4.186	0.3253	-0.013
4.187	0.3253	-0.020
4.188	0.3253	-0.022
4.189	0.3253	-0.023
4.19	0.3253	-0.022
4.191	0.3253	-0.017
4.192	0.3253	-0.011
4.193	0.3253	-0.001
4.194	0.3253	0.063
4.195	0.3253	0.153
4.196	0.3253	0.247
4.197	0.3253	0.302
4.198	0.4667	0.315
4.199	0.7494	0.275
4.2	0.7494	0.178
4.201	0.7494	0.061
4.202	0.7494	-0.086
4.203	0.7494	-0.217
4.204	0.7494	-0.330
4.205	0.7494	-0.403
4.206	0.7494	-0.423
4.207	0.7494	-0.398
4.208	0.7494	-0.307
4.209	0.7494	-0.191
4.21	0.7494	-0.044
4.211	0.7494	0.103
4.212	0.7494	0.228
4.213	0.7494	0.326
4.214	0.7552	0.368
4.215	0.7669	0.365
4.216	0.7669	0.299
4.217	0.7669	0.190
4.218	0.7669	0.059
4.219	0.7669	-0.094
4.22	0.7669	-0.222
4.221	0.7669	-0.333
4.222	0.7669	-0.389
4.223	0.7669	-0.399
4.224	0.7669	-0.355
4.225	0.7669	-0.252
4.226	0.7669	-0.129
4.227	0.7669	0.022
4.228	0.7669	0.161
4.229	0.7669	0.278
4.23	0.7669	0.357
4.231	0.7682	0.381
4.232	0.7709	0.360
4.233	0.7709	0.272
4.234	0.7709	0.157
4.235	0.7709	0.015
4.236	0.7709	-0.133
4.237	0.7709	-0.256
4.238	0.7709	-0.351
4.239	0.7709	-0.390
4.24	0.7709	-0.386
4.241	0.7709	-0.318
4.242	0.7709	-0.209
4.243	0.7709	-0.077
4.244	0.7709	0.077
4.245	0.7709	0.207
4.246	0.7709	0.316
4.247	0.7709	0.374
4.248	0.7669	0.385
4.249	0.7587	0.341
4.25	0.7587	0.240
4.251	0.7587	0.116
4.252	0.7587	-0.036
4.253	0.7587	-0.174
4.254	0.7587	-0.287
4.255	0.7587	-0.353
4.256	0.7587	-0.359
4.257	0.7587	-0.318
4.258	0.7587	-0.209
4.259	0.7587	-0.080
4.26	0.7587	0.068
4.261	0.7587	0.208
4.262	0.7587	0.318
4.263	0.7587	0.400
4.264	0.7801	0.425
4.265	0.8228	0.412
4.266	0.8228	0.333
4.267	0.8228	0.216
4.268	0.8228	0.073
4.269	0.8228	-0.087
4.27	0.8228	-0.221
4.271	0.8228	-0.330
4.272	0.8228	-0.388
4.273	0.8228	-0.398
4.274	0.8228	-0.355
4.275	0.8228	-0.253
4.276	0.8228	-0.131
4.277	0.8228	0.019
4.278	0.8228	0.158
4.279	0.8228	0.273
4.28	0.8228	0.351
4.281	0.8053	0.374
4.282	0.7703	0.354
4.283	0.7703	0.265
4.284	0.7703	0.151
4.285	0.7703	0.008
4.286	0.7703	-0.139
4.287	0.7703	-0.260
4.288	0.7703	-0.355
4.289	0.7703	-0.395
4.29	0.7703	-0.391
4.291	0.7703	-0.322
4.292	0.7703	-0.210
4.293	0.7703	-0.077
4.294	0.7703	0.076
4.295	0.7703	0.207
4.296	0.7703	0.317
4.297	0.7703	0.375
4.298	0.6755	0.386
4.299	0.4859	0.343
4.3	0.4859	0.240
4.301	0.4859	0.119
4.302	0.4859	0.004
4.303	0.4859	-0.055
4.304	0.4859	-0.082
4.305	0.4859	-0.093
4.306	0.4859	-0.100
4.307	0.4859	-0.099
4.308	0.4859	-0.088
4.309	0.4859	-0.075
4.31	0.4859	-0.059
4.311	0.4859	-0.044
4.312	0.4859	-0.030
4.313	0.4859	-0.019
4.314	0.4859	-0.011
4.315	0.3367	-0.008
4.316	0.0381	-0.010
4.317	0.0381	-0.013
4.318	0.0381	-0.017
4.319	0.0381	-0.022
4.32	0.0381	-0.026
4.321	0.0381	-0.029
4.322	0.0381	-0.029
4.323	0.0381	-0.023
4.324	0.0381	-0.014
4.325	0.0381	-0.005
4.326	0.0381	0.002
4.327	0.0381	0.007
4.328	0.0381	0.006
4.329	0.0381	0.009
4.33	0.0309	0.013
4.331	0.0166	0.010
4.332	0.0166	0.001
4.333	0.0166	-0.003
4.334	0.0166	-0.002
4.335	0.0166	0.002
4.336	0.0180	0.004
4.337	0.0209	0.003
4.338	0.0209	0.001
4.339	0.0209	-0.001
4.34	0.0209	-0.002
4.341	0.0209	0.002
4.342	0.0209	0.006
4.343	0.0209	0.010
4.344	0.0209	0.016
4.345	0.0209	0.019
4.346	0.0276	0.022
4.347	0.0409	0.022
4.348	0.0409	0.021
4.349	0.0409	0.014
4.35	0.0409	0.009
4.351	0.0409	0.002
4.352	0.0409	-0.005
4.353	0.0409	-0.011
4.354	0.0409	-0.015
4.355	0.0409	-0.019
4.356	0.0409	-0.019
4.357	0.0409	-0.015
4.358	0.0409	-0.008
4.359	0.0409	-0.003
4.36	0.0409	0.005
4.361	0.0409	0.011
4.362	0.0409	0.015
4.363	0.0409	0.018
4.364	0.0402	0.019
4.365	0.0388	0.017
4.366	0.0388	0.011
4.367	0.0388	0.005
4.368	0.0388	-0.003
4.369	0.0388	-0.008
4.37	0.0388	-0.014
4.371	0.0388	-0.018
4.372	0.0388	-0.020
4.373	0.0388	-0.020
4.374	0.0388	-0.016
4.375	0.0388	-0.011
4.376	0.0388	-0.005
4.377	0.0388	0.002
4.378	0.0388	0.007
4.379	0.0388	0.013
4.38	0.0388	0.015
4.381	0.0386	0.016
4.382	0.0384	0.014
4.383	0.0384	0.007
4.384	0.0384	0.000
4.385	0.0384	-0.006
4.386	0.0384	-0.013
4.387	0.0384	-0.018
4.388	0.0384	-0.021
4.389	0.0384	-0.023
4.39	0.0384	-0.022
4.391	0.0384	-0.018
4.392	0.0384	-0.012
4.393	0.0384	-0.005
4.394	0.0384	0.001
4.395	0.0384	0.005
4.396	0.0384	0.010
4.397	0.0384	0.012
4.398	0.0384	0.011
4.399	0.0384	0.006
4.4	0.0384	0.000
4.401	0.0384	-0.007
4.402	0.0384	-0.014
4.403	0.0384	-0.019
4.404	0.0384	-0.024
4.405	0.0384	-0.027
4.406	0.0384	-0.027
4.407	0.0384	-0.027
4.408	0.0384	-0.020
4.409	0.0384	-0.014
4.41	0.0384	-0.005
4.411	0.0384	0.001
4.412	0.0384	0.006
4.413	0.0384	0.011
4.414	0.0380	0.012
4.415	0.0372	0.010
4.416	0.0372	0.004
4.417	0.0372	-0.002
4.418	0.0372	-0.008
4.419	0.0372	-0.015
4.42	0.0372	-0.019
4.421	0.0372	-0.023
4.422	0.0372	-0.025
4.423	0.0372	-0.025
4.424	0.0372	-0.021
4.425	0.0372	-0.014
4.426	0.0372	-0.009
4.427	0.0372	-0.002
4.428	0.0372	0.004
4.429	0.0372	0.009
4.43	0.0378	0.012
4.431	0.0391	0.011
4.432	0.0391	0.008
4.433	0.0391	0.003
4.434	0.0391	-0.002
4.435	0.0391	-0.009
4.436	0.0391	-0.014
4.437	0.0391	-0.019
4.438	0.0391	-0.024
4.439	0.0391	-0.025
4.44	0.0391	-0.024
4.441	0.0391	-0.021
4.442	0.0391	-0.014
4.443	0.0391	-0.006
4.444	0.0391	0.002
4.445	0.0391	0.008
4.446	0.0391	0.012
4.447	0.0391	0.014
4.448	0.0384	0.014
4.449	0.0372	0.011
4.45	0.0372	0.005
4.451	0.0372	-0.001
4.452	0.0372	-0.008
4.453	0.0372	-0.014
4.454	0.0372	-0.019
4.455	0.0372	-0.022
4.456	0.0372	-0.023
4.457	0.0372	-0.020
4.458	0.0372	-0.013
4.459	0.0372	-0.007
4.46	0.0372	-0.001
4.461	0.0372	0.004
4.462	0.0372	0.010
4.463	0.0372	0.014
4.464	0.0429	0.016
4.465	0.0544	0.014
4.466	0.0544	0.008
4.467	0.0544	0.003
4.468	0.0544	-0.003
4.469	0.0544	-0.010
4.47	0.0544	-0.016
4.471	0.0544	-0.020
4.472	0.0544	-0.021
4.473	0.0544	-0.020
4.474	0.0544	-0.016
4.475	0.0544	-0.011
4.476	0.0544	-0.004
4.477	0.0544	0.002
4.478	0.0544	0.007
4.479	0.0544	0.012
4.48	0.0544	0.016
4.481	0.0544	0.022
4.482	0.0544	0.027
4.483	0.0544	0.033
4.484	0.0459	0.037
4.485	0.0291	0.033
4.486	0.0291	0.024
4.487	0.0291	0.015
4.488	0.0291	0.008
4.489	0.0291	0.008
4.49	0.0291	0.012
4.491	0.0291	0.019
4.492	0.0210	0.021
4.493	0.0050	0.018
4.494	0.0050	0.017
4.495	0.0050	0.020
4.496	0.0050	0.022
4.497	0.0193	0.023
4.498	0.0478	0.021
4.499	0.0478	0.014
4.5	0.0478	0.005
4.501	0.0478	-0.002
4.502	0.0478	-0.011
4.503	0.0478	-0.017
4.504	0.0478	-0.023
4.505	0.0478	-0.025
4.506	0.0478	-0.025
4.507	0.0478	-0.023
4.508	0.0478	-0.018
4.509	0.0478	-0.011
4.51	0.0478	-0.004
4.511	0.0478	0.002
4.512	0.0478	0.007
4.513	0.0478	0.012
4.514	0.0500	0.014
4.515	0.0544	0.013
4.516	0.0544	0.007
4.517	0.0544	0.002
4.518	0.0544	-0.004
4.519	0.0544	-0.012
4.52	0.0544	-0.019
4.521	0.0544	-0.026
4.522	0.0544	-0.029
4.523	0.0544	-0.028
4.524	0.0544	-0.023
4.525	0.0544	-0.013
4.526	0.0544	-0.004
4.527	0.0544	0.008
4.528	0.0544	0.018
4.529	0.0544	0.026
4.53	0.0558	0.030
4.531	0.0587	0.030
4.532	0.0587	0.026
4.533	0.0587	0.017
4.534	0.0587	0.009
4.535	0.0587	-0.002
4.536	0.0587	-0.012
4.537	0.0587	-0.020
4.538	0.0587	-0.026
4.539	0.0587	-0.029
4.54	0.0587	-0.028
4.541	0.0587	-0.021
4.542	0.0587	-0.013
4.543	0.0587	-0.004
4.544	0.0587	0.007
4.545	0.0587	0.015
4.546	0.0587	0.024
4.547	0.0599	0.028
4.548	0.0622	0.028
4.549	0.0622	0.021
4.55	0.0622	0.012
4.551	0.0622	0.002
4.552	0.0622	-0.009
4.553	0.0622	-0.019
4.554	0.0622	-0.028
4.555	0.0622	-0.032
4.556	0.0622	-0.034
4.557	0.0622	-0.031
4.558	0.0622	-0.023
4.559	0.0622	-0.014
4.56	0.0622	-0.002
4.561	0.0622	0.009
4.562	0.0622	0.019
4.563	0.0622	0.026
4.564	0.0625	0.028
4.565	0.0631	0.026
4.566	0.0631	0.018
4.567	0.0631	0.008
4.568	0.0631	-0.002
4.569	0.0631	-0.013
4.57	0.0631	-0.024
4.571	0.0631	-0.031
4.572	0.0631	-0.036
4.573	0.0631	-0.036
4.574	0.0631	-0.030
4.575	0.0631	-0.021
4.576	0.0631	-0.010
4.577	0.0631	0.001
4.578	0.0631	0.012
4.579	0.0631	0.021
4.58	0.0596	0.027
4.581	0.0525	0.027
4.582	0.0525	0.023
4.583	0.0525	0.014
4.584	0.0525	0.005
4.585	0.0525	-0.005
4.586	0.0525	-0.014
4.587	0.0525	-0.020
4.588	0.0525	-0.025
4.589	0.0525	-0.026
4.59	0.0525	-0.024
4.591	0.0525	-0.018
4.592	0.0525	-0.013
4.593	0.0525	-0.005
4.594	0.0525	0.002
4.595	0.0525	0.008
4.596	0.0525	0.012
4.597	0.0525	0.013
4.598	0.0471	0.014
4.599	0.0362	0.009
4.6	0.0362	0.003
4.601	0.0362	-0.003
4.602	0.0362	-0.009
4.603	0.0362	-0.015
4.604	0.0362	-0.019
4.605	0.0362	-0.021
4.606	0.0362	-0.022
4.607	0.0362	-0.019
4.608	0.0362	-0.013
4.609	0.0362	-0.009
4.61	0.0362	-0.003
4.611	0.0362	0.004
4.612	0.0362	0.010
4.613	0.0362	0.014
4.614	0.0364	0.014
4.615	0.0366	0.013
4.616	0.0366	0.007
4.617	0.0366	0.002
4.618	0.0366	-0.005
4.619	0.0366	-0.011
4.62	0.0366	-0.015
4.621	0.0366	-0.019
4.622	0.0366	-0.021
4.623	0.0366	-0.020
4.624	0.0366	-0.016
4.625	0.0366	-0.010
4.626	0.0366	-0.004
4.627	0.0366	0.002
4.628	0.0366	0.007
4.629	0.0366	0.014
4.63	0.0366	0.015
4.631	0.0376	0.016
4.632	0.0397	0.012
4.633	0.0397	0.006
4.634	0.0397	0.000
4.635	0.0397	-0.007
4.636	0.0397	-0.013
4.637	0.0397	-0.019
4.638	0.0397	-0.023
4.639	0.0397	-0.024
4.64	0.0397	-0.023
4.641	0.0397	-0.018
4.642	0.0397	-0.013
4.643	0.0397	-0.007
4.644	0.0397	0.001
4.645	0.0397	0.007
4.646	0.0397	0.013
4.647	0.0397	0.016
4.648	0.0302	0.016
4.649	0.0112	0.013
4.65	0.0112	0.013
4.651	0.0112	0.017
4.652	0.0112	0.024
4.653	0.0140	0.028
4.654	0.0194	0.021
4.655	0.0194	0.013
4.656	0.0194	0.008
4.657	0.0194	0.010
4.658	0.0194	0.017
4.659	0.0194	0.024
4.66	0.0332	0.032
4.661	0.0609	0.030
4.662	0.0609	0.024
4.663	0.0609	0.021
4.664	0.0609	0.018
4.665	0.0609	0.018
4.666	0.0609	0.011
4.667	0.0609	0.002
4.668	0.0609	-0.006
4.669	0.0609	-0.013
4.67	0.0609	-0.020
4.671	0.0609	-0.026
4.672	0.0609	-0.028
4.673	0.0609	-0.029
4.674	0.0609	-0.024
4.675	0.0609	-0.018
4.676	0.0609	-0.013
4.677	0.0609	-0.005
4.678	0.0609	0.002
4.679	0.0609	0.008
4.68	0.0609	0.012
4.681	0.0530	0.012
4.682	0.0372	0.009
4.683	0.0372	0.004
4.684	0.0372	0.000
4.685	0.0372	-0.007
4.686	0.0372	-0.013
4.687	0.0372	-0.016
4.688	0.0372	-0.019
4.689	0.0372	-0.020
4.69	0.0372	-0.019
4.691	0.0372	-0.014
4.692	0.0372	-0.009
4.693	0.0372	-0.000
4.694	0.0372	0.007
4.695	0.0372	0.013
4.696	0.0372	0.017
4.697	0.0378	0.021
4.698	0.0391	0.020
4.699	0.0391	0.015
4.7	0.0391	0.008
4.701	0.0391	0.002
4.702	0.0391	-0.004
4.703	0.0391	-0.011
4.704	0.0391	-0.015
4.705	0.0391	-0.018
4.706	0.0391	-0.018
4.707	0.0391	-0.016
4.708	0.0391	-0.011
4.709	0.0391	-0.006
4.71	0.0391	0.002
4.711	0.0391	0.007
4.712	0.0391	0.013
4.713	0.0391	0.017
4.714	0.0388	0.018
4.715	0.0381	0.016
4.716	0.0381	0.011
4.717	0.0381	0.005
4.718	0.0381	-0.002
4.719	0.0381	-0.009
4.72	0.0381	-0.014
4.721	0.0381	-0.017
4.722	0.0381	-0.020
4.723	0.0381	-0.020
4.724	0.0381	-0.016
4.725	0.0381	-0.010
4.726	0.0381	-0.004
4.727	0.0381	0.004
4.728	0.0381	0.008
4.729	0.0381	0.012
4.73	0.0381	0.014
4.731	0.0386	0.014
4.732	0.0397	0.010
4.733	0.0397	0.004
4.734	0.0397	-0.001
4.735	0.0397	-0.008
4.736	0.0397	-0.013
4.737	0.0397	-0.019
4.738	0.0397	-0.023
4.739	0.0397	-0.025
4.74	0.0397	-0.025
4.741	0.0397	-0.021
4.742	0.0397	-0.014
4.743	0.0397	-0.007
4.744	0.0397	-0.000
4.745	0.0397	0.007
4.746	0.0397	0.011
4.747	0.0389	0.012
4.748	0.0372	0.011
4.749	0.0372	0.007
4.75	0.0372	0.001
4.751	0.0372	-0.004
4.752	0.0372	-0.009
4.753	0.0372	-0.016
4.754	0.0372	-0.021
4.755	0.0372	-0.024
4.756	0.0372	-0.024
4.757	0.0372	-0.021
4.758	0.0372	-0.014
4.759	0.0372	-0.009
4.76	0.0372	-0.002
4.761	0.0372	0.005
4.762	0.0372	0.009
4.763	0.0372	0.013
4.764	0.0373	0.014
4.765	0.0375	0.013
4.766	0.0375	0.007
4.767	0.0375	0.002
4.768	0.0375	-0.005
4.769	0.0375	-0.011
4.77	0.0375	-0.016
4.771	0.0375	-0.022
4.772	0.0375	-0.023
4.773	0.0375	-0.023
4.774	0.0375	-0.021
4.775	0.0375	-0.016
4.776	0.0375	-0.010
4.777	0.0375	-0.002
4.778	0.0375	0.004
4.779	0.0375	0.010
4.78	0.0373	0.013
4.781	0.0369	0.013
4.782	0.0369	0.011
4.783	0.0369	0.005
4.784	0.0369	-0.001
4.785	0.0369	-0.007
4.786	0.0369	-0.014
4.787	0.0369	-0.018
4.788	0.0369	-0.022
4.789	0.0369	-0.024
4.79	0.0369	-0.022
4.791	0.0369	-0.017
4.792	0.0369	-0.012
4.793	0.0369	-0.006
4.794	0.0369	0.003
4.795	0.0369	0.007
4.796	0.0369	0.012
4.797	0.0441	0.015
4.798	0.0584	0.015
4.799	0.0584	0.010
4.8	0.0584	0.004
4.801	0.0584	-0.003
4.802	0.0584	-0.010
4.803	0.0584	-0.014
4.804	0.0584	-0.018
4.805	0.0584	-0.020
4.806	0.0584	-0.021
4.807	0.0584	-0.019
4.808	0.0584	-0.015
4.809	0.0584	-0.011
4.81	0.0584	-0.003
4.811	0.0584	0.003
4.812	0.0584	0.008
4.813	0.0584	0.019
4.814	0.0584	0.027
4.815	0.0584	0.038
4.816	0.0519	0.044
4.817	0.0388	0.040
4.818	0.0388	0.030
4.819	0.0388	0.019
4.82	0.0388	0.010
4.821	0.0388	0.005
4.822	0.0388	0.007
4.823	0.0388	0.012
4.824	0.0292	0.013
4.825	0.0100	0.011
4.826	0.0100	0.007
4.827	0.0100	0.010
4.828	0.0100	0.014
4.829	0.0100	0.017
4.83	0.0100	0.017
4.831	0.0210	0.017
4.832	0.0431	0.013
4.833	0.0431	0.005
4.834	0.0431	-0.001
4.835	0.0431	-0.010
4.836	0.0431	-0.015
4.837	0.0431	-0.021
4.838	0.0431	-0.025
4.839	0.0431	-0.026
4.84	0.0431	-0.025
4.841	0.0431	-0.019
4.842	0.0431	-0.013
4.843	0.0431	-0.006
4.844	0.0431	0.001
4.845	0.0431	0.005
4.846	0.0431	0.010
4.847	0.0431	0.013
4.848	0.0416	0.013
4.849	0.0384	0.010
4.85	0.0384	0.004
4.851	0.0384	-0.003
4.852	0.0384	-0.009
4.853	0.0384	-0.014
4.854	0.0384	-0.019
4.855	0.0384	-0.022
4.856	0.0384	-0.021
4.857	0.0384	-0.019
4.858	0.0384	-0.013
4.859	0.0384	-0.007
4.86	0.0384	-0.001
4.861	0.0384	0.007
4.862	0.0384	0.013
4.863	0.0384	0.017
4.864	0.0380	0.018
4.865	0.0372	0.016
4.866	0.0372	0.011
4.867	0.0372	0.005
4.868	0.0372	-0.001
4.869	0.0372	-0.009
4.87	0.0372	-0.013
4.871	0.0372	-0.017
4.872	0.0372	-0.019
4.873	0.0372	-0.019
4.874	0.0372	-0.015
4.875	0.0372	-0.010
4.876	0.0372	-0.004
4.877	0.0372	0.003
4.878	0.0372	0.007
4.879	0.0372	0.010
4.88	0.0371	0.014
4.881	0.0369	0.014
4.882	0.0369	0.011
4.883	0.0369	0.006
4.884	0.0369	-0.001
4.885	0.0369	-0.007
4.886	0.0369	-0.013
4.887	0.0369	-0.018
4.888	0.0369	-0.023
4.889	0.0369	-0.023
4.89	0.0369	-0.023
4.891	0.0369	-0.018
4.892	0.0369	-0.012
4.893	0.0369	-0.005
4.894	0.0369	0.002
4.895	0.0369	0.007
4.896	0.0369	0.012
4.897	0.0372	0.014
4.898	0.0378	0.013
4.899	0.0378	0.010
4.9	0.0378	0.004
4.901	0.0378	-0.001
4.902	0.0378	-0.008
4.903	0.0378	-0.014
4.904	0.0378	-0.020
4.905	0.0378	-0.023
4.906	0.0378	-0.024
4.907	0.0378	-0.022
4.908	0.0378	-0.017
4.909	0.0378	-0.010
4.91	0.0378	-0.003
4.911	0.0378	0.003
4.912	0.0378	0.007
4.913	0.0378	0.012
4.914	0.0374	0.013
4.915	0.0366	0.011
4.916	0.0366	0.007
4.917	0.0366	0.002
4.918	0.0366	-0.004
4.919	0.0366	-0.010
4.92	0.0366	-0.016
4.921	0.0366	-0.020
4.922	0.0366	-0.023
4.923	0.0366	-0.022
4.924	0.0366	-0.019
4.925	0.0366	-0.012
4.926	0.0366	-0.005
4.927	0.0366	0.001
4.928	0.0366	0.006
4.929	0.0366	0.011
4.93	0.0366	0.011
4.931	0.0366	0.009
4.932	0.0366	0.008
4.933	0.0366	0.002
4.934	0.0366	-0.004
4.935	0.0366	-0.010
4.936	0.0366	-0.016
4.937	0.0366	-0.020
4.938	0.0366	-0.025
4.939	0.0366	-0.025
4.94	0.0366	-0.023
4.941	0.0366	-0.018
4.942	0.0366	-0.014
4.943	0.0366	-0.007
4.944	0.0366	0.000
4.945	0.0366	0.006
4.946	0.0366	0.012
4.947	0.0358	0.014
4.948	0.0344	0.014
4.949	0.0344	0.010
4.95	0.0344	0.003
4.951	0.0344	-0.002
4.952	0.0344	-0.009
4.953	0.0344	-0.014
4.954	0.0344	-0.018
4.955	0.0344	-0.020
4.956	0.0344	-0.020
4.957	0.0344	-0.019
4.958	0.0344	-0.014
4.959	0.0344	-0.009
4.96	0.0344	-0.001
4.961	0.0344	0.005
4.962	0.0344	0.010
4.963	0.0355	0.015
4.964	0.0378	0.015
4.965	0.0378	0.014
4.966	0.0378	0.009
4.967	0.0378	0.003
4.968	0.0378	-0.002
4.969	0.0378	-0.008
4.97	0.0378	-0.014
4.971	0.0378	-0.019
4.972	0.0378	-0.021
4.973	0.0378	-0.022
4.974	0.0378	-0.019
4.975	0.0378	-0.014
4.976	0.0378	-0.008
4.977	0.0378	-0.001
4.978	0.0378	0.007
4.979	0.0378	0.012
4.98	0.0378	0.016
4.981	0.0448	0.017
4.982	0.0587	0.014
4.983	0.0587	0.009
4.984	0.0587	0.003
4.985	0.0587	-0.003
4.986	0.0587	-0.009
4.987	0.0587	-0.014
4.988	0.0587	-0.018
4.989	0.0587	-0.019
4.99	0.0587	-0.020
4.991	0.0587	-0.016
4.992	0.0587	-0.011
4.993	0.0587	-0.004
4.994	0.0587	0.002
4.995	0.0587	0.007
4.996	0.0587	0.013
4.997	0.0587	0.017
4.998	0.0587	0.024
4.999	0.0587	0.031
5	0.0587	0.039
5.001	0.0493	0.042
5.002	0.0303	0.035
5.003	0.0303	0.024
5.004	0.0303	0.014
5.005	0.0303	0.012
5.006	0.0303	0.012
5.007	0.0303	0.017
5.008	0.0230	0.024
5.009	0.0084	0.022
5.01	0.0084	0.017
5.011	0.0084	0.016
5.012	0.0084	0.018
5.013	0.0084	0.020
5.014	0.0199	0.020
5.015	0.0428	0.018
5.016	0.0428	0.010
5.017	0.0428	0.003
5.018	0.0428	-0.003
5.019	0.0428	-0.011
5.02	0.0428	-0.015
5.021	0.0428	-0.021
5.022	0.0428	-0.023
5.023	0.0428	-0.023
5.024	0.0428	-0.020
5.025	0.0428	-0.015
5.026	0.0428	-0.008
5.027	0.0428	-0.001
5.028	0.0428	0.004
5.029	0.0428	0.011
5.03	0.0428	0.016
5.031	0.0496	0.017
5.032	0.0631	0.015
5.033	0.0631	0.010
5.034	0.0631	0.005
5.035	0.0631	-0.001
5.036	0.0631	-0.009
5.037	0.0631	-0.017
5.038	0.0631	-0.025
5.039	0.0631	-0.028
5.04	0.0631	-0.029
5.041	0.0631	-0.024
5.042	0.0631	-0.016
5.043	0.0631	-0.004
5.044	0.0631	0.008
5.045	0.0631	0.020
5.046	0.0631	0.029
5.047	0.0631	0.034
5.048	0.0647	0.036
5.049	0.0678	0.033
5.05	0.0678	0.022
5.051	0.0678	0.013
5.052	0.0678	0.000
5.053	0.0678	-0.011
5.054	0.0678	-0.022
5.055	0.0678	-0.029
5.056	0.0678	-0.032
5.057	0.0678	-0.029
5.058	0.0678	-0.021
5.059	0.0678	-0.013
5.06	0.0678	-0.001
5.061	0.0678	0.011
5.062	0.0678	0.018
5.063	0.0678	0.027
5.064	0.0678	0.031
5.065	0.0675	0.031
5.066	0.0669	0.025
5.067	0.0669	0.017
5.068	0.0669	0.004
5.069	0.0669	-0.008
5.07	0.0669	-0.018
5.071	0.0669	-0.028
5.072	0.0669	-0.034
5.073	0.0669	-0.036
5.074	0.0669	-0.033
5.075	0.0669	-0.027
5.076	0.0669	-0.016
5.077	0.0669	-0.003
5.078	0.0669	0.010
5.079	0.0669	0.021
5.08	0.0669	0.029
5.081	0.0667	0.032
5.082	0.0662	0.031
5.083	0.0662	0.022
5.084	0.0662	0.012
5.085	0.0662	0.001
5.086	0.0662	-0.012
5.087	0.0662	-0.022
5.088	0.0662	-0.031
5.089	0.0662	-0.034
5.09	0.0662	-0.034
5.091	0.0662	-0.028
5.092	0.0662	-0.020
5.093	0.0662	-0.010
5.094	0.0662	0.002
5.095	0.0662	0.013
5.096	0.0662	0.023
5.097	0.0662	0.030
5.098	0.0656	0.031
5.099	0.0644	0.028
5.1	0.0644	0.019
5.101	0.0644	0.009
5.102	0.0644	-0.003
5.103	0.0644	-0.014
5.104	0.0644	-0.025
5.105	0.0644	-0.031
5.106	0.0644	-0.033
5.107	0.0644	-0.033
5.108	0.0644	-0.026
5.109	0.0644	-0.018
5.11	0.0644	-0.007
5.111	0.0644	0.006
5.112	0.0644	0.018
5.113	0.0644	0.028
5.114	0.0649	0.032
5.115	0.0659	0.032
5.116	0.0659	0.025
5.117	0.0659	0.017
5.118	0.0659	0.007
5.119	0.0659	-0.005
5.12	0.0659	-0.017
5.121	0.0659	-0.026
5.122	0.0659	-0.032
5.123	0.0659	-0.034
5.124	0.0659	-0.031
5.125	0.0659	-0.023
5.126	0.0659	-0.013
5.127	0.0659	-0.001
5.128	0.0659	0.012
5.129	0.0659	0.022
5.13	0.0659	0.030
5.131	0.0653	0.032
5.132	0.0641	0.030
5.133	0.0641	0.022
5.134	0.0641	0.013
5.135	0.0641	0.002
5.136	0.0641	-0.011
5.137	0.0641	-0.020
5.138	0.0641	-0.028
5.139	0.0641	-0.033
5.14	0.0641	-0.031
5.141	0.0641	-0.028
5.142	0.0641	-0.018
5.143	0.0641	-0.006
5.144	0.0641	0.005
5.145	0.0641	0.014
5.146	0.0641	0.020
5.147	0.0641	0.022
5.148	0.0555	0.023
5.149	0.0384	0.021
5.15	0.0384	0.015
5.151	0.0384	0.008
5.152	0.0384	0.001
5.153	0.0384	-0.005
5.154	0.0384	-0.010
5.155	0.0384	-0.014
5.156	0.0384	-0.015
5.157	0.0384	-0.015
5.158	0.0384	-0.010
5.159	0.0384	-0.005
5.16	0.0384	0.001
5.161	0.0384	0.009
5.162	0.0384	0.016
5.163	0.0384	0.020
5.164	0.0384	0.022
5.165	0.0516	0.022
5.166	0.0778	0.018
5.167	0.0778	0.013
5.168	0.0778	0.006
5.169	0.0778	-0.001
5.17	0.0778	-0.005
5.171	0.0778	-0.008
5.172	0.0778	-0.008
5.173	0.0778	-0.001
5.174	0.0778	0.013
5.175	0.0778	0.032
5.176	0.0778	0.050
5.177	0.0778	0.060
5.178	0.0778	0.062
5.179	0.0778	0.067
5.18	0.0778	0.068
5.181	0.0778	0.069
5.182	0.0810	0.070
5.183	0.0875	0.066
5.184	0.0875	0.051
5.185	0.0875	0.024
5.186	0.0875	0.003
5.187	0.0875	-0.011
5.188	0.0875	-0.017
5.189	0.0875	-0.018
5.19	0.0875	-0.017
5.191	0.0875	-0.012
5.192	0.0875	-0.005
5.193	0.0875	0.001
5.194	0.0875	0.008
5.195	0.0875	0.012
5.196	0.0875	0.015
5.197	0.0716	0.018
5.198	0.0397	0.012
5.199	0.0397	0.007
5.2	0.0397	0.001
5.201	0.0397	-0.004
5.202	0.0397	-0.011
5.203	0.0397	-0.015
5.204	0.0397	-0.019
5.205	0.0397	-0.022
5.206	0.0397	-0.022
5.207	0.0397	-0.021
5.208	0.0397	-0.015
5.209	0.0397	-0.009
5.21	0.0397	-0.002
5.211	0.0397	0.004
5.212	0.0397	0.010
5.213	0.0397	0.016
5.214	0.0390	0.018
5.215	0.0375	0.017
5.216	0.0375	0.013
5.217	0.0375	0.008
5.218	0.0375	0.003
5.219	0.0375	-0.003
5.22	0.0375	-0.007
5.221	0.0375	-0.013
5.222	0.0375	-0.013
5.223	0.0375	-0.015
5.224	0.0375	-0.011
5.225	0.0375	-0.005
5.226	0.0375	-0.000
5.227	0.0375	0.007
5.228	0.0375	0.014
5.229	0.0375	0.019
5.23	0.0375	0.022
5.231	0.0384	0.023
5.232	0.0403	0.021
5.233	0.0403	0.015
5.234	0.0403	0.008
5.235	0.0403	0.001
5.236	0.0403	-0.005
5.237	0.0403	-0.010
5.238	0.0403	-0.014
5.239	0.0403	-0.017
5.24	0.0403	-0.017
5.241	0.0403	-0.014
5.242	0.0403	-0.009
5.243	0.0403	-0.003
5.244	0.0403	0.004
5.245	0.0403	0.009
5.246	0.0403	0.012
5.247	0.0396	0.015
5.248	0.0381	0.015
5.249	0.0381	0.011
5.25	0.0381	0.005
5.251	0.0381	-0.002
5.252	0.0381	-0.008
5.253	0.0381	-0.013
5.254	0.0381	-0.019
5.255	0.0381	-0.022
5.256	0.0381	-0.022
5.257	0.0381	-0.023
5.258	0.0381	-0.017
5.259	0.0381	-0.012
5.26	0.0381	-0.004
5.261	0.0381	0.002
5.262	0.0381	0.007
5.263	0.0381	0.012
5.264	0.0381	0.014
5.265	0.0374	0.014
5.266	0.0359	0.010
5.267	0.0359	0.003
5.268	0.0359	-0.003
5.269	0.0359	-0.011
5.27	0.0359	-0.016
5.271	0.0359	-0.021
5.272	0.0359	-0.022
5.273	0.0359	-0.022
5.274	0.0359	-0.018
5.275	0.0359	-0.012
5.276	0.0359	-0.006
5.277	0.0359	0.002
5.278	0.0359	0.007
5.279	0.0359	0.012
5.28	0.0359	0.013
5.281	0.0365	0.014
5.282	0.0375	0.011
5.283	0.0375	0.006
5.284	0.0375	0.001
5.285	0.0375	-0.008
5.286	0.0375	-0.013
5.287	0.0375	-0.017
5.288	0.0375	-0.022
5.289	0.0375	-0.023
5.29	0.0375	-0.023
5.291	0.0375	-0.020
5.292	0.0375	-0.015
5.293	0.0375	-0.009
5.294	0.0375	-0.000
5.295	0.0375	0.007
5.296	0.0375	0.013
5.297	0.0375	0.014
5.298	0.0385	0.014
5.299	0.0406	0.012
5.3	0.0406	0.006
5.301	0.0406	0.000
5.302	0.0406	-0.006
5.303	0.0406	-0.010
5.304	0.0406	-0.015
5.305	0.0406	-0.018
5.306	0.0406	-0.017
5.307	0.0406	-0.009
5.308	0.0406	0.006
5.309	0.0406	0.014
5.31	0.0406	0.020
5.311	0.0406	0.022
5.312	0.0406	0.023
5.313	0.0406	0.022
5.314	0.0406	0.022
5.315	0.0360	0.023
5.316	0.0269	0.021
5.317	0.0269	0.011
5.318	0.0269	0.007
5.319	0.0269	0.007
5.32	0.0269	0.005
5.321	0.0269	0.001
5.322	0.0269	-0.002
5.323	0.0269	-0.004
5.324	0.0269	-0.004
5.325	0.0269	-0.001
5.326	0.0269	0.004
5.327	0.0269	0.010
5.328	0.0269	0.013
5.329	0.0269	0.018
5.33	0.0310	0.021
5.331	0.0394	0.020
5.332	0.0394	0.018
5.333	0.0394	0.013
5.334	0.0394	0.006
5.335	0.0394	-0.002
5.336	0.0394	-0.007
5.337	0.0394	-0.013
5.338	0.0394	-0.016
5.339	0.0394	-0.018
5.34	0.0394	-0.016
5.341	0.0394	-0.011
5.342	0.0394	-0.005
5.343	0.0394	0.001
5.344	0.0394	0.007
5.345	0.0394	0.014
5.346	0.0394	0.020
5.347	0.0394	0.022
5.348	0.0382	0.022
5.349	0.0359	0.020
5.35	0.0359	0.013
5.351	0.0359	0.008
5.352	0.0359	0.001
5.353	0.0359	-0.004
5.354	0.0359	-0.010
5.355	0.0359	-0.013
5.356	0.0359	-0.014
5.357	0.0359	-0.013
5.358	0.0359	-0.007
5.359	0.0359	-0.002
5.36	0.0359	0.004
5.361	0.0359	0.011
5.362	0.0359	0.015
5.363	0.0359	0.019
5.364	0.0371	0.019
5.365	0.0394	0.019
5.366	0.0394	0.013
5.367	0.0394	0.009
5.368	0.0394	0.003
5.369	0.0394	-0.004
5.37	0.0394	-0.011
5.371	0.0394	-0.017
5.372	0.0394	-0.020
5.373	0.0394	-0.020
5.374	0.0394	-0.019
5.375	0.0394	-0.013
5.376	0.0394	-0.008
5.377	0.0394	-0.001
5.378	0.0394	0.005
5.379	0.0394	0.010
5.38	0.0394	0.013
5.381	0.0388	0.013
5.382	0.0375	0.011
5.383	0.0375	0.006
5.384	0.0375	-0.001
5.385	0.0375	-0.007
5.386	0.0375	-0.014
5.387	0.0375	-0.019
5.388	0.0375	-0.022
5.389	0.0375	-0.025
5.39	0.0375	-0.023
5.391	0.0375	-0.018
5.392	0.0375	-0.013
5.393	0.0375	-0.006
5.394	0.0375	0.001
5.395	0.0375	0.005
5.396	0.0375	0.010
5.397	0.0362	0.013
5.398	0.0338	0.011
5.399	0.0338	0.008
5.4	0.0338	0.002
5.401	0.0338	-0.005
5.402	0.0338	-0.011
5.403	0.0338	-0.016
5.404	0.0338	-0.020
5.405	0.0338	-0.021
5.406	0.0338	-0.021
5.407	0.0338	-0.020
5.408	0.0338	-0.018
5.409	0.0338	-0.014
5.41	0.0338	-0.007
5.411	0.0338	-0.002
5.412	0.0338	0.005
5.413	0.0242	0.013
5.414	0.0050	0.011
5.415	0.0050	0.009
5.416	0.0050	0.009
5.417	0.0050	0.014
5.418	0.0101	0.015
5.419	0.0203	0.010
5.42	0.0203	0.006
5.421	0.0203	0.000
5.422	0.0203	-0.004
5.423	0.0203	-0.005
5.424	0.0203	-0.004
5.425	0.0203	-0.001
5.426	0.0203	0.003
5.427	0.0203	0.007
5.428	0.0203	0.011
5.429	0.0203	0.014
5.43	0.0258	0.017
5.431	0.0369	0.016
5.432	0.0369	0.013
5.433	0.0369	0.008
5.434	0.0369	0.003
5.435	0.0369	-0.004
5.436	0.0369	-0.011
5.437	0.0369	-0.015
5.438	0.0369	-0.019
5.439	0.0369	-0.020
5.44	0.0369	-0.019
5.441	0.0369	-0.015
5.442	0.0369	-0.009
5.443	0.0369	-0.002
5.444	0.0369	0.004
5.445	0.0369	0.011
5.446	0.0369	0.015
5.447	0.0369	0.017
5.448	0.0370	0.017
5.449	0.0372	0.014
5.45	0.0372	0.007
5.451	0.0372	0.002
5.452	0.0372	-0.004
5.453	0.0372	-0.010
5.454	0.0372	-0.015
5.455	0.0372	-0.018
5.456	0.0372	-0.020
5.457	0.0372	-0.019
5.458	0.0372	-0.013
5.459	0.0372	-0.008
5.46	0.0372	-0.001
5.461	0.0372	0.005
5.462	0.0372	0.009
5.463	0.0372	0.013
5.464	0.0383	0.014
5.465	0.0406	0.013
5.466	0.0406	0.008
5.467	0.0406	0.002
5.468	0.0406	-0.004
5.469	0.0406	-0.011
5.47	0.0406	-0.016
5.471	0.0406	-0.022
5.472	0.0406	-0.025
5.473	0.0406	-0.026
5.474	0.0406	-0.026
5.475	0.0406	-0.022
5.476	0.0406	-0.018
5.477	0.0406	-0.012
5.478	0.0406	-0.006
5.479	0.0406	-0.002
5.48	0.0372	0.000
5.481	0.0303	-0.003
5.482	0.0303	-0.005
5.483	0.0303	-0.009
5.484	0.0303	-0.011
5.485	0.0303	-0.012
5.486	0.0303	-0.013
5.487	0.0303	-0.016
5.488	0.0303	-0.018
5.489	0.0303	-0.018
5.49	0.0303	-0.018
5.491	0.0303	-0.013
5.492	0.0303	-0.008
5.493	0.0303	-0.003
5.494	0.0303	0.003
5.495	0.0303	0.008
5.496	0.0303	0.012
5.497	0.0341	0.014
5.498	0.0416	0.013
5.499	0.0416	0.009
5.5	0.0416	0.003
5.501	0.0416	-0.003
5.502	0.0416	-0.011
5.503	0.0416	-0.016
5.504	0.0416	-0.022
5.505	0.0416	-0.026
5.506	0.0416	-0.027
5.507	0.0416	-0.026
5.508	0.0416	-0.022
5.509	0.0416	-0.017
5.51	0.0416	-0.008
5.511	0.0416	-0.002
5.512	0.0416	0.005
5.513	0.0416	0.011
5.514	0.0416	0.013
5.515	0.0401	0.013
5.516	0.0372	0.008
5.517	0.0372	0.002
5.518	0.0372	-0.003
5.519	0.0372	-0.009
5.52	0.0372	-0.015
5.521	0.0372	-0.020
5.522	0.0372	-0.023
5.523	0.0372	-0.024
5.524	0.0372	-0.022
5.525	0.0372	-0.015
5.526	0.0372	-0.009
5.527	0.0372	-0.003
5.528	0.0372	0.004
5.529	0.0372	0.007
5.53	0.0372	0.011
5.531	0.0360	0.012
5.532	0.0338	0.011
5.533	0.0338	0.005
5.534	0.0338	0.001
5.535	0.0338	-0.005
5.536	0.0338	-0.010
5.537	0.0338	-0.014
5.538	0.0338	-0.018
5.539	0.0338	-0.020
5.54	0.0338	-0.020
5.541	0.0338	-0.016
5.542	0.0338	-0.011
5.543	0.0338	-0.003
5.544	0.0338	0.004
5.545	0.0338	0.008
5.546	0.0338	0.013
5.547	0.0544	0.016
5.548	0.0956	0.015
5.549	0.0956	0.013
5.55	0.0956	0.006
5.551	0.0956	-0.007
5.552	0.0956	-0.024
5.553	0.0956	-0.039
5.554	0.0956	-0.050
5.555	0.0956	-0.056
5.556	0.0956	-0.058
5.557	0.0956	-0.050
5.558	0.0956	-0.033
5.559	0.0956	-0.027
5.56	0.0956	-0.021
5.561	0.0956	-0.015
5.562	0.0956	-0.008
5.563	0.0956	0.003
5.564	0.0956	0.016
5.565	0.0956	0.031
5.566	0.0956	0.038
5.567	0.0742	0.041
5.568	0.0312	0.039
5.569	0.0312	0.032
5.57	0.0312	0.027
5.571	0.0312	0.019
5.572	0.0312	0.013
5.573	0.0312	0.010
5.574	0.0312	0.010
5.575	0.0312	0.013
5.576	0.0312	0.015
5.577	0.0312	0.022
5.578	0.0312	0.027
5.579	0.0312	0.030
5.58	0.0343	0.034
5.581	0.0403	0.032
5.582	0.0403	0.029
5.583	0.0403	0.025
5.584	0.0403	0.018
5.585	0.0403	0.011
5.586	0.0403	0.005
5.587	0.0403	0.000
5.588	0.0403	-0.005
5.589	0.0403	-0.006
5.59	0.0403	-0.007
5.591	0.0403	-0.003
5.592	0.0403	0.003
5.593	0.0403	0.010
5.594	0.0403	0.017
5.595	0.0403	0.022
5.596	0.0403	0.027
5.597	0.0397	0.027
5.598	0.0384	0.027
5.599	0.0384	0.024
5.6	0.0384	0.018
5.601	0.0384	0.013
5.602	0.0384	0.004
5.603	0.0384	-0.002
5.604	0.0384	-0.007
5.605	0.0384	-0.010
5.606	0.0384	-0.011
5.607	0.0384	-0.010
5.608	0.0384	-0.004
5.609	0.0384	-0.000
5.61	0.0384	0.007
5.611	0.0384	0.012
5.612	0.0384	0.016
5.613	0.0384	0.020
5.614	0.0394	0.021
5.615	0.0412	0.018
5.616	0.0412	0.014
5.617	0.0412	0.008
5.618	0.0412	-0.000
5.619	0.0412	-0.007
5.62	0.0412	-0.013
5.621	0.0412	-0.018
5.622	0.0412	-0.020
5.623	0.0412	-0.020
5.624	0.0412	-0.018
5.625	0.0412	-0.013
5.626	0.0412	-0.007
5.627	0.0412	-0.001
5.628	0.0412	0.006
5.629	0.0412	0.011
5.63	0.0405	0.015
5.631	0.0391	0.014
5.632	0.0391	0.013
5.633	0.0391	0.008
5.634	0.0391	0.002
5.635	0.0391	-0.005
5.636	0.0391	-0.012
5.637	0.0391	-0.018
5.638	0.0391	-0.022
5.639	0.0391	-0.024
5.64	0.0391	-0.024
5.641	0.0391	-0.018
5.642	0.0391	-0.014
5.643	0.0391	-0.008
5.644	0.0391	-0.001
5.645	0.0391	0.006
5.646	0.0391	0.011
5.647	0.0391	0.014
5.648	0.0384	0.015
5.649	0.0372	0.012
5.65	0.0372	0.006
5.651	0.0372	0.001
5.652	0.0372	-0.006
5.653	0.0372	-0.012
5.654	0.0372	-0.017
5.655	0.0372	-0.021
5.656	0.0372	-0.022
5.657	0.0372	-0.021
5.658	0.0372	-0.016
5.659	0.0372	-0.008
5.66	0.0372	-0.002
5.661	0.0372	0.004
5.662	0.0372	0.010
5.663	0.0372	0.014
5.664	0.0372	0.014
5.665	0.0369	0.015
5.666	0.0363	0.012
5.667	0.0363	0.005
5.668	0.0363	-0.000
5.669	0.0363	-0.008
5.67	0.0363	-0.014
5.671	0.0363	-0.019
5.672	0.0363	-0.021
5.673	0.0363	-0.020
5.674	0.0363	-0.018
5.675	0.0363	-0.011
5.676	0.0363	-0.006
5.677	0.0363	0.001
5.678	0.0363	0.008
5.679	0.0363	0.013
5.68	0.0363	0.015
5.681	0.0367	0.017
5.682	0.0375	0.014
5.683	0.0375	0.008
5.684	0.0375	0.004
5.685	0.0375	-0.004
5.686	0.0375	-0.011
5.687	0.0375	-0.016
5.688	0.0375	-0.020
5.689	0.0375	-0.021
5.69	0.0375	-0.020
5.691	0.0375	-0.015
5.692	0.0375	-0.010
5.693	0.0375	-0.003
5.694	0.0375	0.003
5.695	0.0375	0.008
5.696	0.0375	0.013
5.697	0.0375	0.015
5.698	0.0371	0.015
5.699	0.0363	0.012
5.7	0.0363	0.007
5.701	0.0363	0.001
5.702	0.0363	-0.006
5.703	0.0363	-0.012
5.704	0.0363	-0.017
5.705	0.0363	-0.020
5.706	0.0363	-0.021
5.707	0.0363	-0.019
5.708	0.0363	-0.014
5.709	0.0363	-0.008
5.71	0.0363	-0.001
5.711	0.0363	0.006
5.712	0.0363	0.012
5.713	0.0363	0.016
5.714	0.0372	0.018
5.715	0.0391	0.018
5.716	0.0391	0.011
5.717	0.0391	0.007
5.718	0.0391	0.000
5.719	0.0391	-0.007
5.72	0.0391	-0.013
5.721	0.0391	-0.017
5.722	0.0391	-0.020
5.723	0.0391	-0.021
5.724	0.0391	-0.018
5.725	0.0391	-0.011
5.726	0.0391	-0.005
5.727	0.0391	0.003
5.728	0.0391	0.008
5.729	0.0391	0.013
5.73	0.0391	0.018
5.731	0.0380	0.018
5.732	0.0359	0.017
5.733	0.0359	0.011
5.734	0.0359	0.006
5.735	0.0359	-0.002
5.736	0.0359	-0.006
5.737	0.0359	-0.012
5.738	0.0359	-0.018
5.739	0.0359	-0.018
5.74	0.0359	-0.018
5.741	0.0359	-0.013
5.742	0.0359	-0.007
5.743	0.0359	-0.002
5.744	0.0359	0.006
5.745	0.0359	0.011
5.746	0.0359	0.016
5.747	0.0359	0.016
5.748	0.0432	0.018
5.749	0.0578	0.014
5.75	0.0578	0.008
5.751	0.0578	0.001
5.752	0.0578	-0.007
5.753	0.0578	-0.014
5.754	0.0578	-0.017
5.755	0.0578	-0.018
5.756	0.0578	-0.018
5.757	0.0578	-0.015
5.758	0.0578	-0.007
5.759	0.0578	0.003
5.76	0.0578	0.018
5.761	0.0578	0.027
5.762	0.0578	0.032
5.763	0.0578	0.035
5.764	0.0578	0.036
5.765	0.0578	0.039
5.766	0.0573	0.041
5.767	0.0562	0.035
5.768	0.0562	0.024
5.769	0.0562	0.011
5.77	0.0562	0.002
5.771	0.0562	-0.009
5.772	0.0562	-0.014
5.773	0.0562	-0.015
5.774	0.0562	-0.015
5.775	0.0562	-0.010
5.776	0.0562	-0.003
5.777	0.0562	0.003
5.778	0.0562	0.011
5.779	0.0562	0.018
5.78	0.0562	0.021
5.781	0.0490	0.022
5.782	0.0344	0.022
5.783	0.0344	0.016
5.784	0.0344	0.011
5.785	0.0344	0.005
5.786	0.0344	-0.002
5.787	0.0344	-0.006
5.788	0.0344	-0.009
5.789	0.0344	-0.011
5.79	0.0344	-0.010
5.791	0.0344	-0.004
5.792	0.0344	0.002
5.793	0.0344	0.007
5.794	0.0344	0.015
5.795	0.0344	0.019
5.796	0.0344	0.023
5.797	0.0354	0.025
5.798	0.0375	0.025
5.799	0.0375	0.022
5.8	0.0375	0.016
5.801	0.0375	0.011
5.802	0.0375	0.002
5.803	0.0375	-0.003
5.804	0.0375	-0.008
5.805	0.0375	-0.012
5.806	0.0375	-0.013
5.807	0.0375	-0.012
5.808	0.0375	-0.008
5.809	0.0375	-0.001
5.81	0.0375	0.005
5.811	0.0375	0.011
5.812	0.0375	0.017
5.813	0.0375	0.022
5.814	0.0522	0.022
5.815	0.0816	0.020
5.816	0.0816	0.017
5.817	0.0816	0.009
5.818	0.0816	0.001
5.819	0.0816	-0.007
5.82	0.0816	-0.013
5.821	0.0816	-0.018
5.822	0.0816	-0.023
5.823	0.0816	-0.028
5.824	0.0816	-0.028
5.825	0.0816	-0.027
5.826	0.0816	-0.029
5.827	0.0816	-0.031
5.828	0.0816	-0.036
5.829	0.0816	-0.040
5.83	0.0816	-0.038
5.831	0.0816	-0.030
5.832	0.0816	-0.016
5.833	0.0816	-0.005
5.834	0.0816	-0.000
5.835	0.0816	0.004
5.836	0.0816	0.012
5.837	0.0816	0.017
5.838	0.0816	0.018
5.839	0.0816	0.021
5.84	0.0816	0.023
5.841	0.0816	0.026
5.842	0.0816	0.028
5.843	0.0816	0.033
5.844	0.0816	0.036
5.845	0.0816	0.038
5.846	0.0816	0.042
5.847	0.0711	0.042
5.848	0.0503	0.039
5.849	0.0503	0.034
5.85	0.0503	0.027
5.851	0.0503	0.018
5.852	0.0503	0.012
5.853	0.0503	0.004
5.854	0.0503	-0.002
5.855	0.0503	-0.005
5.856	0.0503	-0.008
5.857	0.0503	-0.008
5.858	0.0503	-0.003
5.859	0.0503	0.002
5.86	0.0503	0.009
5.861	0.0503	0.017
5.862	0.0503	0.022
5.863	0.0503	0.026
5.864	0.0503	0.027
5.865	0.0475	0.028
5.866	0.0419	0.022
5.867	0.0419	0.015
5.868	0.0419	0.009
5.869	0.0419	0.001
5.87	0.0419	-0.005
5.871	0.0419	-0.010
5.872	0.0419	-0.013
5.873	0.0419	-0.014
5.874	0.0419	-0.011
5.875	0.0419	-0.006
