Time,Channel 1,Channel 2,Channel 3
0,-0.47,NaN,-0.006
0.001,-0.47,NaN,-0.005
0.002,-1.09,NaN,-0.007
0.003,-1.72,NaN,-0.007
0.004,-2.81,NaN,-0.010
0.005,-2.66,NaN,-0.013
0.006,-2.03,NaN,-0.015
0.007,-2.34,NaN,-0.017
0.008,-1.88,NaN,-0.020
0.009,0.00,NaN,-0.021
0.01,0.47,NaN,-0.020
0.011,0.78,NaN,-0.020
0.012,3.44,NaN,-0.018
0.013,4.06,NaN,-0.013
0.014,2.66,NaN,-0.010
0.015,3.44,NaN,-0.008
0.016,2.50,NaN,-0.003
0.017,0.63,NaN,-0.003
0.018,-0.16,0.0169,-0.002
0.019,-1.56,0.0169,-0.003
0.02,-2.50,0.0169,-0.005
0.021,-2.66,0.0169,-0.008
0.022,-2.34,0.0169,-0.011
0.023,-2.97,0.0169,-0.013
0.024,-2.03,0.0169,-0.017
0.025,-0.63,0.0169,-0.017
0.026,-0.47,0.0169,-0.018
0.027,0.47,0.0169,-0.018
0.028,2.03,0.0169,-0.017
0.029,2.97,0.0169,-0.014
0.03,3.59,0.0169,-0.011
0.031,3.75,0.0169,-0.007
0.032,2.81,0.0169,-0.003
0.033,1.72,0.0169,-0.001
0.034,0.16,0.0170,0.000
0.035,-0.78,0.0172,-0.001
0.036,-1.56,0.0172,-0.002
0.037,-2.03,0.0172,-0.004
0.038,-2.81,0.0172,-0.006
0.039,-2.81,0.0172,-0.009
0.04,-2.34,0.0172,-0.011
0.041,-2.81,0.0172,-0.014
0.042,-1.41,0.0172,-0.017
0.043,0.31,0.0172,-0.017
0.044,0.94,0.0172,-0.016
0.045,2.66,0.0172,-0.015
0.046,3.12,0.0172,-0.011
0.047,2.50,0.0172,-0.009
0.048,3.75,0.0172,-0.006
0.049,3.12,0.0172,-0.001
0.05,0.94,0.0172,0.000
0.051,-0.63,0.0176,0.001
0.052,-0.78,0.0184,-0.001
0.053,-1.72,0.0184,-0.001
0.054,-3.59,0.0184,-0.004
0.055,-3.12,0.0184,-0.008
0.056,-3.28,0.0184,-0.011
0.057,-3.28,0.0184,-0.015
0.058,-1.56,0.0184,-0.017
0.059,0.00,0.0184,-0.018
0.06,1.09,0.0184,-0.017
0.061,1.88,0.0184,-0.016
0.062,2.66,0.0184,-0.013
0.063,3.44,0.0184,-0.010
0.064,3.59,0.0184,-0.007
0.065,3.12,0.0184,-0.003
0.066,2.66,0.0184,-0.000
0.067,1.25,0.0189,0.002
0.068,-1.09,0.0197,0.002
0.069,-2.66,0.0197,0.000
0.07,-2.50,0.0197,-0.003
0.071,-3.13,0.0197,-0.005
0.072,-3.28,0.0197,-0.009
0.073,-2.19,0.0197,-0.012
0.074,-2.03,0.0197,-0.014
0.075,-1.56,0.0197,-0.016
0.076,-0.94,0.0197,-0.017
0.077,0.16,0.0197,-0.018
0.078,1.56,0.0197,-0.017
0.079,3.44,0.0197,-0.014
0.08,3.59,0.0197,-0.010
0.081,2.34,0.0197,-0.007
0.082,2.66,0.0197,-0.005
0.083,2.97,0.0197,-0.002
0.084,0.78,0.0195,0.001
0.085,-0.94,0.0191,-0.000
0.086,-1.25,0.0191,-0.001
0.087,-2.97,0.0191,-0.003
0.088,-3.28,0.0191,-0.007
0.089,-2.66,0.0191,-0.009
0.09,-2.97,0.0191,-0.012
0.091,-2.66,0.0191,-0.015
0.092,-0.78,0.0191,-0.018
0.093,0.63,0.0191,-0.017
0.094,1.72,0.0191,-0.016
0.095,2.81,0.0191,-0.013
0.096,3.28,0.0191,-0.011
0.097,3.28,0.0191,-0.007
0.098,3.28,0.0191,-0.004
0.099,2.81,0.0191,-0.000
0.1,1.09,0.0191,0.002
0.101,-0.31,0.0181,0.002
0.102,-0.78,0.0162,0.001
0.103,-1.72,0.0162,0.000
0.104,-2.97,0.0162,-0.003
0.105,-3.44,0.0162,-0.006
0.106,-3.28,0.0162,-0.009
0.107,-2.19,0.0162,-0.012
0.108,-1.09,0.0162,-0.014
0.109,-0.16,0.0162,-0.014
0.11,1.41,0.0162,-0.014
0.111,1.72,0.0162,-0.012
0.112,1.72,0.0162,-0.011
0.113,2.81,0.0162,-0.008
0.114,2.97,0.0162,-0.005
0.115,2.81,0.0162,-0.002
0.116,2.19,0.0162,0.001
0.117,0.78,0.0165,0.002
0.118,-0.78,0.0169,0.002
0.119,-1.25,0.0169,0.001
0.12,-1.25,0.0169,-0.000
0.121,-2.97,0.0169,-0.002
0.122,-3.12,0.0169,-0.006
0.123,-2.19,0.0169,-0.008
0.124,-2.50,0.0169,-0.011
0.125,-2.03,0.0169,-0.013
0.126,-0.31,0.0169,-0.015
0.127,0.62,0.0169,-0.014
0.128,1.25,0.0169,-0.013
0.129,3.12,0.0169,-0.011
0.13,3.75,0.0169,-0.007
0.131,2.97,0.0169,-0.004
0.132,2.50,0.0169,-0.001
0.133,1.72,0.0169,0.001
0.134,0.31,0.0166,0.002
0.135,-0.31,0.0159,0.002
0.136,-1.41,0.0159,0.002
0.137,-2.97,0.0159,-0.001
0.138,-3.44,0.0159,-0.004
0.139,-2.19,0.0159,-0.008
0.14,-2.03,0.0159,-0.009
0.141,-2.03,0.0159,-0.012
0.142,-0.78,0.0159,-0.013
0.143,-0.31,0.0159,-0.013
0.144,1.25,0.0159,-0.013
0.145,3.12,0.0159,-0.011
0.146,2.81,0.0159,-0.007
0.147,2.97,0.0159,-0.005
0.148,3.12,0.0159,-0.001
0.149,1.87,0.0159,0.001
0.15,1.88,0.0159,0.003
0.151,0.78,0.0170,0.005
0.152,-1.72,0.0191,0.004
0.153,-2.19,0.0191,0.001
0.154,-2.19,0.0191,-0.000
0.155,-3.28,0.0191,-0.003
0.156,-3.59,0.0191,-0.007
0.157,-2.19,0.0191,-0.010
0.158,-2.03,0.0191,-0.011
0.159,-1.56,0.0191,-0.014
0.16,0.78,0.0191,-0.014
0.161,1.88,0.0191,-0.013
0.162,3.44,0.0191,-0.011
0.163,4.22,0.0191,-0.006
0.164,2.66,0.0191,-0.002
0.165,2.19,0.0191,-0.001
0.166,2.19,0.0191,0.002
0.167,0.78,0.0196,0.004
0.168,-0.63,0.0206,0.004
0.169,-0.94,0.0206,0.003
0.17,-2.03,0.0206,0.002
0.171,-3.59,0.0206,-0.002
0.172,-3.75,0.0206,-0.005
0.173,-4.37,0.0206,-0.009
0.174,-2.97,0.0206,-0.014
0.175,-1.41,0.0206,-0.015
0.176,0.00,0.0206,-0.017
0.177,1.72,0.0206,-0.015
0.178,2.66,0.0206,-0.013
0.179,2.97,0.0206,-0.010
0.18,2.66,0.0206,-0.007
0.181,2.81,0.0206,-0.004
0.182,2.50,0.0206,-0.002
0.183,1.72,0.0206,0.001
0.184,0.47,0.0198,0.002
0.185,-0.78,0.0181,0.002
0.186,-1.56,0.0181,0.000
0.187,-1.72,0.0181,-0.002
0.188,-3.12,0.0181,-0.003
0.189,-3.75,0.0181,-0.008
0.19,-2.34,0.0181,-0.011
0.191,-2.03,0.0181,-0.013
0.192,-1.25,0.0181,-0.015
0.193,0.78,0.0181,-0.015
0.194,1.87,0.0181,-0.013
0.195,1.41,0.0181,-0.011
0.196,2.97,0.0181,-0.011
0.197,5.31,0.0181,-0.005
0.198,3.75,0.0181,0.000
0.199,1.56,0.0181,0.002
0.2,1.09,0.0181,0.003
0.201,0.31,0.0178,0.004
0.202,-0.94,0.0172,0.004
0.203,-1.56,0.0172,0.003
0.204,-2.97,0.0172,0.001
0.205,-3.12,0.0172,-0.003
0.206,-2.66,0.0172,-0.006
0.207,-2.81,0.0172,-0.009
0.208,-2.03,0.0172,-0.011
0.209,-0.16,0.0172,-0.013
0.21,0.47,0.0172,-0.012
0.211,0.94,0.0172,-0.012
0.212,2.66,0.0172,-0.010
0.213,2.66,0.0172,-0.007
0.214,2.97,0.0172,-0.004
0.215,3.28,0.0172,-0.001
0.216,2.50,0.0172,0.002
0.217,0.94,0.0180,0.004
0.218,-0.94,0.0197,0.004
0.219,-2.03,0.0197,0.003
0.22,-2.34,0.0197,0.000
0.221,-2.50,0.0197,-0.002
0.222,-3.13,0.0197,-0.005
0.223,-3.28,0.0197,-0.008
0.224,-2.66,0.0197,-0.012
0.225,-1.56,0.0197,-0.014
0.226,-0.78,0.0197,-0.015
0.227,0.78,0.0197,-0.015
0.228,2.50,0.0197,-0.013
0.229,3.28,0.0197,-0.010
0.23,3.59,0.0197,-0.007
0.231,3.28,0.0197,-0.003
0.232,2.34,0.0197,0.000
0.233,1.41,0.0197,0.002
0.234,0.63,0.0195,0.003
0.235,-1.25,0.0191,0.003
0.236,-1.87,0.0191,0.000
0.237,-2.03,0.0191,-0.001
0.238,-3.12,0.0191,-0.004
0.239,-3.12,0.0191,-0.007
0.24,-2.81,0.0191,-0.010
0.241,-2.34,0.0191,-0.013
0.242,-1.72,0.0191,-0.015
0.243,0.62,0.0191,-0.016
0.244,2.50,0.0191,-0.013
0.245,2.19,0.0191,-0.011
0.246,3.28,0.0191,-0.009
0.247,2.34,0.0191,-0.005
0.248,1.88,0.0191,-0.004
0.249,3.12,0.0191,-0.001
0.25,1.87,0.0191,0.002
0.251,0.63,0.0191,0.003
0.252,-0.16,0.0183,0.003
0.253,-1.87,0.0169,0.003
0.254,-3.12,0.0169,-0.001
0.255,-2.50,0.0169,-0.004
0.256,-2.66,0.0169,-0.006
0.257,-3.12,0.0169,-0.009
0.258,-2.03,0.0169,-0.012
0.259,-0.94,0.0169,-0.013
0.26,0.62,0.0169,-0.014
0.261,2.34,0.0169,-0.012
0.262,2.81,0.0169,-0.009
0.263,2.81,0.0169,-0.006
0.264,2.34,0.0169,-0.003
0.265,2.81,0.0169,-0.002
0.266,2.34,0.0169,0.002
0.267,0.78,0.0169,0.003
0.268,0.31,0.0176,0.004
0.269,-0.94,0.0191,0.004
0.27,-2.50,0.0191,0.002
0.271,-2.81,0.0191,-0.001
0.272,-3.75,0.0191,-0.004
0.273,-3.28,0.0191,-0.009
0.274,-2.81,0.0191,-0.010
0.275,-2.50,0.0191,-0.014
0.276,0.47,0.0191,-0.015
0.277,1.88,0.0191,-0.013
0.278,1.25,0.0191,-0.012
0.279,2.19,0.0191,-0.011
0.28,3.44,0.0191,-0.007
0.281,2.19,0.0191,-0.004
0.282,1.72,0.0191,-0.003
0.283,2.50,0.0191,-0.001
0.284,0.94,0.0194,0.002
0.285,-1.41,0.0200,0.001
0.286,-2.03,0.0200,-0.001
0.287,-2.97,0.0200,-0.003
0.288,-3.75,0.0200,-0.007
0.289,-3.12,0.0200,-0.010
0.29,-2.66,0.0200,-0.013
0.291,-1.87,0.0200,-0.016
0.292,-0.31,0.0200,-0.017
0.293,0.78,0.0200,-0.016
0.294,1.72,0.0200,-0.015
0.295,3.44,0.0200,-0.013
0.296,4.06,0.0200,-0.008
0.297,2.81,0.0200,-0.005
0.298,2.34,0.0200,-0.003
0.299,2.97,0.0200,0.000
0.3,1.72,0.0200,0.003
0.301,0.16,0.0200,0.003
0.302,-0.63,0.0193,0.004
0.303,-1.87,0.0178,0.002
0.304,-2.81,0.0178,0.000
0.305,-3.44,0.0178,-0.003
0.306,-3.91,0.0178,-0.007
0.307,-2.97,0.0178,-0.011
0.308,-1.41,0.0178,-0.013
0.309,-0.62,0.0178,-0.014
0.31,1.09,0.0178,-0.014
0.311,2.50,0.0178,-0.012
0.312,2.50,0.0178,-0.009
0.313,2.81,0.0178,-0.007
0.314,3.28,0.0178,-0.003
0.315,2.50,0.0178,-0.000
0.316,1.41,0.0178,0.002
0.317,1.09,0.0178,0.003
0.318,0.16,0.0185,0.004
0.319,-2.19,0.0200,0.003
0.32,-2.66,0.0200,-0.001
0.321,-2.50,0.0200,-0.003
0.322,-3.59,0.0200,-0.006
0.323,-3.28,0.0200,-0.010
0.324,-2.19,0.0200,-0.012
0.325,-2.03,0.0200,-0.014
0.326,-0.63,0.0200,-0.016
0.327,0.94,0.0200,-0.015
0.328,1.56,0.0200,-0.014
0.329,3.28,0.0200,-0.012
0.33,3.44,0.0200,-0.008
0.331,2.81,0.0200,-0.005
0.332,3.44,0.0200,-0.002
0.333,2.50,0.0200,0.002
0.334,0.31,0.0193,0.003
0.335,-0.31,0.0178,0.002
0.336,-1.41,0.0178,0.002
0.337,-3.28,0.0178,-0.001
0.338,-3.44,0.0178,-0.004
0.339,-3.12,0.0178,-0.007
0.34,-3.12,0.0178,-0.011
0.341,-2.03,0.0178,-0.014
0.342,-0.47,0.0178,-0.015
0.343,0.16,0.0178,-0.015
0.344,0.94,0.0178,-0.014
0.345,2.19,0.0178,-0.013
0.346,3.12,0.0178,-0.010
0.347,3.44,0.0178,-0.007
0.348,3.12,0.0178,-0.003
0.349,2.03,0.0178,-0.000
0.35,1.72,0.0178,0.001
0.351,1.25,0.0178,0.003
0.352,-0.63,0.0182,0.003
0.353,-1.25,0.0191,0.002
0.354,-1.72,0.0191,0.001
0.355,-3.59,0.0191,-0.002
0.356,-3.75,0.0191,-0.006
0.357,-2.19,0.0191,-0.009
0.358,-1.88,0.0191,-0.011
0.359,-0.94,0.0191,-0.013
0.36,1.09,0.0191,-0.013
0.361,2.50,0.0191,-0.011
0.362,3.59,0.0191,-0.007
0.363,3.59,0.0191,-0.003
0.364,2.50,0.0191,-0.000
0.365,3.28,0.0191,0.002
0.366,3.28,0.0191,0.006
0.367,0.94,0.0189,0.008
0.368,-0.94,0.0184,0.008
0.369,-1.09,0.0184,0.006
0.37,-2.03,0.0184,0.006
0.371,-2.81,0.0184,0.002
0.372,-1.87,0.0184,0.000
0.373,-2.97,0.0184,-0.002
0.374,-2.81,0.0184,-0.006
0.375,-1.88,0.0184,-0.007
0.376,-0.94,0.0184,-0.009
0.377,1.25,0.0184,-0.009
0.378,2.81,0.0184,-0.007
0.379,4.22,0.0184,-0.003
0.38,3.28,0.0184,0.002
0.381,2.50,0.0184,0.003
0.382,2.50,0.0184,0.007
0.383,1.25,0.0184,0.008
0.384,1.25,0.0184,0.009
0.385,0.31,0.0180,0.011
0.386,-1.88,0.0172,0.010
0.387,-2.66,0.0172,0.007
0.388,-2.81,0.0172,0.004
0.389,-3.28,0.0172,0.001
0.39,-3.12,0.0172,-0.002
0.391,-1.56,0.0172,-0.005
0.392,-0.78,0.0172,-0.005
0.393,-0.62,0.0172,-0.007
0.394,0.94,0.0172,-0.007
0.395,1.87,0.0172,-0.005
0.396,2.34,0.0172,-0.003
0.397,3.44,0.0172,0.000
0.398,3.12,0.0172,0.004
0.399,2.03,0.0172,0.006
0.4,1.25,0.0172,0.008
0.401,0.00,0.0178,0.009
0.402,-1.41,0.0191,0.008
0.403,-1.72,0.0191,0.006
0.404,-2.66,0.0191,0.005
0.405,-3.12,0.0191,0.001
0.406,-2.81,0.0191,-0.002
0.407,-3.12,0.0191,-0.005
0.408,-2.03,0.0191,-0.008
0.409,-0.31,0.0191,-0.009
0.41,0.62,0.0191,-0.008
0.411,1.09,0.0191,-0.008
0.412,3.28,0.0191,-0.006
0.413,4.06,0.0191,-0.001
0.414,2.66,0.0191,0.002
0.415,2.50,0.0191,0.004
0.416,2.97,0.0191,0.007
0.417,1.56,0.0191,0.010
0.418,0.16,0.0191,0.010
0.419,-1.09,0.0190,0.010
0.42,-2.81,0.0188,0.008
0.421,-2.81,0.0188,0.005
0.422,-2.81,0.0188,0.002
0.423,-3.28,0.0188,-0.001
0.424,-2.50,0.0188,-0.004
0.425,-1.41,0.0188,-0.006
0.426,-1.25,0.0188,-0.007
0.427,0.47,0.0188,-0.008
0.428,1.72,0.0188,-0.006
0.429,2.03,0.0188,-0.005
0.43,3.59,0.0188,-0.002
0.431,3.75,0.0188,0.002
0.432,2.81,0.0188,0.005
0.433,1.87,0.0188,0.008
0.434,0.94,0.0188,0.009
0.435,-0.47,0.0186,0.010
0.436,-1.88,0.0184,0.008
0.437,-2.03,0.0184,0.006
0.438,-3.12,0.0184,0.004
0.439,-3.44,0.0184,-0.000
0.44,-2.34,0.0184,-0.003
0.441,-2.34,0.0184,-0.005
0.442,-1.88,0.0184,-0.007
0.443,0.16,0.0184,-0.009
0.444,1.88,0.0184,-0.007
0.445,2.50,0.0184,-0.005
0.446,3.59,0.0184,-0.002
0.447,3.44,0.0184,0.002
0.448,2.34,0.0184,0.005
0.449,2.34,0.0184,0.007
0.45,1.88,0.0184,0.009
0.451,-0.16,0.0186,0.011
0.452,-1.09,0.0191,0.009
0.453,-1.56,0.0191,0.008
0.454,-3.44,0.0191,0.006
0.455,-3.59,0.0191,0.002
0.456,-2.66,0.0191,-0.001
0.457,-2.66,0.0191,-0.004
0.458,-2.34,0.0191,-0.007
0.459,-0.78,0.0191,-0.008
0.46,0.63,0.0191,-0.008
0.461,1.72,0.0191,-0.007
0.462,2.34,0.0191,-0.005
0.463,2.66,0.0191,-0.003
0.464,3.44,0.0191,0.001
0.465,2.66,0.0191,0.004
0.466,2.03,0.0191,0.006
0.467,1.56,0.0191,0.008
0.468,0.00,0.0188,0.009
0.469,-1.25,0.0181,0.008
0.47,-1.72,0.0181,0.007
0.471,-2.50,0.0181,0.005
0.472,-4.37,0.0181,0.002
0.473,-4.06,0.0181,-0.004
0.474,-1.72,0.0181,-0.007
0.475,-1.09,0.0181,-0.007
0.476,-0.16,0.0181,-0.009
0.477,1.56,0.0181,-0.007
0.478,2.19,0.0181,-0.006
0.479,2.97,0.0181,-0.003
0.48,4.06,0.0181,0.000
0.481,3.75,0.0181,0.005
0.482,2.19,0.0181,0.008
0.483,1.88,0.0181,0.009
0.484,0.94,0.0185,0.012
0.485,-1.09,0.0194,0.011
0.486,-1.88,0.0194,0.009
0.487,-2.97,0.0194,0.007
0.488,-3.44,0.0194,0.003
0.489,-3.12,0.0194,0.001
0.49,-2.66,0.0194,-0.003
0.491,-2.50,0.0194,-0.005
0.492,-1.41,0.0194,-0.008
0.493,0.63,0.0194,-0.007
0.494,1.25,0.0194,-0.007
0.495,2.50,0.0194,-0.005
0.496,2.97,0.0194,-0.002
0.497,3.28,0.0194,0.001
0.498,3.75,0.0194,0.005
0.499,2.03,0.0194,0.008
0.5,0.78,0.0194,0.009
0.501,-0.16,0.0199,0.010
0.502,-1.41,0.0209,0.009
0.503,-2.19,0.0209,0.007
0.504,-2.66,0.0209,0.004
0.505,-2.66,0.0209,0.002
0.506,-3.28,0.0209,-0.001
0.507,-2.81,0.0209,-0.005
0.508,-2.03,0.0209,-0.007
0.509,-2.19,0.0209,-0.009
0.51,-0.31,0.0209,-0.011
0.511,2.19,0.0209,-0.009
0.512,2.66,0.0209,-0.007
0.513,3.28,0.0209,-0.004
0.514,3.44,0.0209,0.000
0.515,2.03,0.0209,0.003
0.516,1.41,0.0209,0.004
0.517,1.41,0.0209,0.006
0.518,0.16,0.0208,0.007
0.519,-1.72,0.0206,0.006
0.52,-1.87,0.0206,0.003
0.521,-2.66,0.0206,0.002
0.522,-4.37,0.0206,-0.002
0.523,-3.59,0.0206,-0.007
0.524,-2.34,0.0206,-0.009
0.525,-2.34,0.0206,-0.011
0.526,-0.78,0.0206,-0.014
0.527,1.72,0.0206,-0.013
0.528,3.28,0.0206,-0.010
0.529,3.28,0.0206,-0.006
0.53,2.19,0.0206,-0.004
0.531,2.34,0.0206,-0.002
0.532,2.81,0.0206,0.001
0.533,1.41,0.0206,0.004
0.534,0.16,0.0206,0.004
0.535,0.31,0.0206,0.004
0.536,-1.09,0.0193,0.004
0.537,-3.28,0.0166,0.002
0.538,-3.12,0.0166,-0.002
0.539,-2.19,0.0166,-0.004
0.54,-2.34,0.0166,-0.007
0.541,-1.88,0.0166,-0.009
0.542,-0.47,0.0166,-0.010
0.543,-0.31,0.0166,-0.010
0.544,0.78,0.0166,-0.011
0.545,2.34,0.0166,-0.008
0.546,2.34,0.0166,-0.006
0.547,2.97,0.0166,-0.004
0.548,3.44,0.0166,-0.000
0.549,2.34,0.0166,0.003
0.55,1.25,0.0166,0.004
0.551,1.09,0.0166,0.006
0.552,-0.63,0.0170,0.007
0.553,-1.87,0.0178,0.004
0.554,-2.03,0.0178,0.003
0.555,-3.28,0.0178,0.000
0.556,-3.59,0.0178,-0.004
0.557,-2.81,0.0178,-0.007
0.558,-2.19,0.0178,-0.009
0.559,-0.62,0.0178,-0.011
0.56,0.94,0.0178,-0.011
0.561,1.25,0.0178,-0.009
0.562,2.34,0.0178,-0.008
0.563,3.12,0.0178,-0.005
0.564,2.19,0.0178,-0.002
0.565,2.34,0.0178,-0.000
0.566,2.66,0.0178,0.003
0.567,0.62,0.0184,0.005
0.568,-0.63,0.0197,0.004
0.569,-0.94,0.0197,0.004
0.57,-2.50,0.0197,0.002
0.571,-4.06,0.0197,-0.001
0.572,-3.44,0.0197,-0.006
0.573,-3.28,0.0197,-0.008
0.574,-2.66,0.0197,-0.013
0.575,-0.78,0.0197,-0.013
0.576,-0.62,0.0197,-0.014
0.577,0.47,0.0197,-0.015
0.578,2.81,0.0197,-0.013
0.579,4.06,0.0197,-0.009
0.58,3.59,0.0197,-0.005
0.581,3.44,0.0197,-0.002
0.582,2.50,0.0197,0.002
0.583,1.09,0.0197,0.003
0.584,0.63,0.0197,0.004
0.585,0.00,0.0193,0.004
0.586,-1.09,0.0184,0.004
0.587,-2.19,0.0184,0.002
0.588,-2.97,0.0184,-0.000
0.589,-3.59,0.0184,-0.004
0.59,-2.66,0.0184,-0.007
0.591,-1.56,0.0184,-0.009
0.592,-2.19,0.0184,-0.011
0.593,-0.47,0.0184,-0.013
0.594,2.34,0.0184,-0.012
0.595,2.97,0.0184,-0.009
0.596,3.12,0.0184,-0.006
0.597,3.75,0.0184,-0.003
0.598,2.97,0.0184,0.002
0.599,1.56,0.0184,0.003
0.6,1.88,0.0184,0.005
0.601,0.47,0.0189,0.007
0.602,-1.41,0.0197,0.006
0.603,-2.34,0.0197,0.004
0.604,-4.06,0.0197,0.001
0.605,-3.91,0.0197,-0.004
0.606,-2.81,0.0197,-0.007
0.607,-1.88,0.0197,-0.009
0.608,-1.25,0.0197,-0.010
0.609,-0.78,0.0197,-0.012
0.61,0.94,0.0197,-0.012
0.611,1.72,0.0197,-0.010
0.612,2.81,0.0197,-0.008
0.613,3.59,0.0197,-0.004
0.614,3.59,0.0197,-0.001
0.615,3.91,0.0197,0.003
0.616,2.50,0.0197,0.007
0.617,0.78,0.0197,0.008
0.618,-0.31,0.0200,0.008
0.619,-1.25,0.0206,0.007
0.62,-2.81,0.0206,0.006
0.621,-3.28,0.0206,0.002
0.622,-2.66,0.0206,-0.001
0.623,-3.44,0.0206,-0.004
0.624,-2.81,0.0206,-0.008
0.625,-1.88,0.0206,-0.009
0.626,-1.56,0.0206,-0.012
0.627,0.00,0.0206,-0.013
0.628,1.56,0.0206,-0.012
0.629,2.66,0.0206,-0.009
0.63,3.28,0.0206,-0.006
0.631,3.28,0.0206,-0.003
0.632,2.34,0.0206,0.000
0.633,1.09,0.0206,0.002
0.634,0.31,0.0207,0.003
0.635,-0.94,0.0209,0.003
0.636,-2.03,0.0209,0.001
0.637,-2.50,0.0209,-0.002
0.638,-3.75,0.0209,-0.004
0.639,-3.12,0.0209,-0.009
0.64,-1.72,0.0209,-0.011
0.641,-2.66,0.0209,-0.013
0.642,-1.41,0.0209,-0.016
0.643,0.47,0.0209,-0.015
0.644,1.09,0.0209,-0.015
0.645,3.44,0.0209,-0.013
0.646,4.53,0.0209,-0.008
0.647,3.28,0.0209,-0.004
0.648,3.28,0.0209,-0.002
0.649,3.12,0.0209,0.003
0.65,1.25,0.0209,0.005
0.651,0.47,0.0209,0.005
0.652,-0.16,0.0199,0.006
0.653,-1.72,0.0178,0.005
0.654,-3.12,0.0178,0.002
0.655,-3.28,0.0178,-0.002
0.656,-2.97,0.0178,-0.004
0.657,-2.81,0.0178,-0.007
0.658,-1.72,0.0178,-0.010
0.659,-1.09,0.0178,-0.011
0.66,-0.16,0.0178,-0.012
0.661,1.72,0.0178,-0.011
0.662,2.81,0.0178,-0.009
0.663,2.34,0.0178,-0.006
0.664,2.81,0.0178,-0.004
0.665,4.06,0.0178,0.000
0.666,2.34,0.0178,0.004
0.667,0.94,0.0178,0.005
0.668,0.00,0.0179,0.006
0.669,-2.34,0.0181,0.005
0.67,-2.50,0.0181,0.001
0.671,-1.72,0.0181,-0.000
0.672,-3.12,0.0181,-0.002
0.673,-2.81,0.0181,-0.007
0.674,-0.94,0.0181,-0.008
0.675,-0.94,0.0181,-0.008
0.676,-1.09,0.0181,-0.010
0.677,0.16,0.0181,-0.011
0.678,1.88,0.0181,-0.009
0.679,3.28,0.0181,-0.007
0.68,4.22,0.0181,-0.003
0.681,3.75,0.0181,0.002
0.682,2.97,0.0181,0.005
0.683,2.81,0.0181,0.007
0.684,1.41,0.0185,0.010
0.685,-0.78,0.0194,0.010
0.686,-2.19,0.0194,0.009
0.687,-3.44,0.0194,0.006
0.688,-3.91,0.0194,0.002
0.689,-2.50,0.0194,-0.002
0.69,-2.97,0.0194,-0.003
0.691,-2.97,0.0194,-0.008
0.692,-0.16,0.0194,-0.009
0.693,0.78,0.0194,-0.008
0.694,0.78,0.0194,-0.007
0.695,2.19,0.0194,-0.007
0.696,3.75,0.0194,-0.003
0.697,3.44,0.0194,0.001
0.698,3.12,0.0194,0.004
0.699,2.97,0.0194,0.007
0.7,1.56,0.0194,0.010
0.701,0.62,0.0194,0.010
0.702,-0.94,0.0198,0.011
0.703,-1.72,0.0206,0.008
0.704,-2.03,0.0206,0.007
0.705,-3.12,0.0206,0.004
0.706,-3.12,0.0206,0.001
0.707,-2.50,0.0206,-0.002
0.708,-1.56,0.0206,-0.004
0.709,-1.72,0.0206,-0.005
0.71,0.47,0.0206,-0.007
0.711,2.66,0.0206,-0.004
0.712,2.66,0.0206,-0.002
0.713,3.28,0.0206,0.001
0.714,3.91,0.0206,0.005
0.715,3.28,0.0206,0.009
0.716,2.19,0.0206,0.011
0.717,2.03,0.0206,0.013
0.718,0.16,0.0203,0.015
0.719,-1.88,0.0197,0.014
0.72,-2.03,0.0197,0.012
0.721,-3.28,0.0197,0.010
0.722,-4.37,0.0197,0.005
0.723,-2.97,0.0197,0.001
0.724,-2.66,0.0197,-0.001
0.725,-1.41,0.0197,-0.004
0.726,0.47,0.0197,-0.004
0.727,0.78,0.0197,-0.003
0.728,1.72,0.0197,-0.002
0.729,3.28,0.0197,0.000
0.73,3.91,0.0197,0.004
0.731,2.97,0.0197,0.008
0.732,3.12,0.0197,0.010
0.733,2.66,0.0197,0.014
0.734,0.63,0.0191,0.016
0.735,-0.47,0.0178,0.015
0.736,-1.72,0.0178,0.015
0.737,-3.12,0.0178,0.012
0.738,-3.59,0.0178,0.008
0.739,-3.28,0.0178,0.005
0.74,-3.44,0.0178,0.002
0.741,-2.03,0.0178,-0.002
0.742,0.00,0.0178,-0.002
0.743,0.00,0.0178,-0.002
0.744,0.63,0.0178,-0.002
0.745,2.03,0.0178,-0.001
0.746,2.66,0.0178,0.002
0.747,2.81,0.0178,0.004
0.748,3.59,0.0178,0.007
0.749,2.81,0.0178,0.012
0.75,1.56,0.0178,0.013
0.751,0.94,0.0178,0.015
0.752,-1.25,0.0182,0.015
0.753,-2.34,0.0191,0.012
0.754,-2.50,0.0191,0.010
0.755,-3.59,0.0191,0.007
0.756,-3.44,0.0191,0.003
0.757,-2.50,0.0191,0.000
0.758,-1.87,0.0191,-0.002
0.759,-1.09,0.0191,-0.003
0.76,0.47,0.0191,-0.004
0.761,1.87,0.0191,-0.003
0.762,2.81,0.0191,-0.000
0.763,3.59,0.0191,0.003
0.764,3.13,0.0191,0.007
0.765,1.72,0.0191,0.009
0.766,1.72,0.0191,0.010
0.767,1.56,0.0191,0.013
0.768,-0.47,0.0185,0.013
0.769,-1.72,0.0175,0.012
0.77,-1.56,0.0175,0.010
0.771,-3.12,0.0175,0.009
0.772,-3.28,0.0175,0.004
0.773,-2.03,0.0175,0.002
0.774,-2.34,0.0175,-0.000
0.775,-1.87,0.0175,-0.003
0.776,-0.47,0.0175,-0.004
0.777,-0.16,0.0169,-0.003
0.778,1.09,0.0156,-0.004
0.779,3.12,0.0156,-0.001
0.78,3.59,0.0156,0.002
0.781,3.91,0.0156,0.006
0.782,2.66,0.0156,0.010
0.783,1.41,0.0156,0.011
0.784,0.62,0.0168,0.013
0.785,-0.78,0.0191,0.013
0.786,-1.88,0.0191,0.011
0.787,-2.03,0.0191,0.009
0.788,-3.12,0.0191,0.007
0.789,-4.22,0.0191,0.003
0.79,-3.44,0.0191,-0.002
0.791,-1.72,0.0191,-0.004
0.792,-1.09,0.0191,-0.005
0.793,-0.47,0.0191,-0.007
0.794,0.78,0.0191,-0.006
0.795,0.94,0.0191,-0.005
0.796,2.97,0.0191,-0.004
0.797,4.06,0.0191,0.001
0.798,2.50,0.0191,0.004
0.799,2.50,0.0191,0.006
0.8,2.97,0.0191,0.009
0.801,0.00,0.0190,0.012
0.802,-1.72,0.0188,0.009
0.803,-1.25,0.0188,0.008
0.804,-2.34,0.0188,0.007
0.805,-3.28,0.0188,0.004
0.806,-3.12,0.0188,0.000
0.807,-3.28,0.0188,-0.003
0.808,-2.19,0.0188,-0.007
0.809,0.00,0.0188,-0.007
0.81,0.31,0.0188,-0.007
0.811,0.47,0.0188,-0.006
0.812,2.66,0.0188,-0.006
0.813,3.91,0.0188,-0.001
0.814,2.97,0.0188,0.002
0.815,2.97,0.0188,0.005
0.816,2.50,0.0188,0.008
0.817,0.47,0.0194,0.010
0.818,-1.09,0.0206,0.009
0.819,-1.41,0.0206,0.008
0.82,-2.19,0.0206,0.006
0.821,-3.28,0.0206,0.003
0.822,-2.81,0.0206,-0.000
0.823,-3.28,0.0206,-0.002
0.824,-3.28,0.0206,-0.007
0.825,-1.25,0.0206,-0.009
0.826,-0.94,0.0206,-0.009
0.827,0.16,0.0206,-0.011
0.828,2.03,0.0206,-0.009
0.829,2.66,0.0206,-0.007
0.83,4.22,0.0206,-0.004
0.831,4.22,0.0206,0.002
0.832,2.66,0.0206,0.005
0.833,1.41,0.0206,0.007
0.834,0.16,0.0200,0.007
0.835,-1.25,0.0188,0.007
0.836,-1.87,0.0188,0.005
0.837,-1.25,0.0188,0.004
0.838,-3.12,0.0188,0.003
0.839,-4.06,0.0188,-0.003
0.84,-2.50,0.0188,-0.006
0.841,-2.34,0.0188,-0.007
0.842,-1.88,0.0188,-0.010
0.843,-0.16,0.0188,-0.011
0.844,0.63,0.0188,-0.011
0.845,1.25,0.0188,-0.010
0.846,2.97,0.0188,-0.008
0.847,3.28,0.0188,-0.004
0.848,2.97,0.0188,-0.002
0.849,3.12,0.0188,0.002
0.85,1.88,0.0188,0.005
0.851,0.16,0.0188,0.006
0.852,-1.09,0.0188,0.005
0.853,-1.56,0.0188,0.003
0.854,-2.66,0.0188,0.002
0.855,-3.44,0.0188,-0.002
0.856,-3.12,0.0188,-0.005
0.857,-3.44,0.0188,-0.008
0.858,-2.34,0.0188,-0.012
0.859,-0.62,0.0188,-0.013
0.86,0.47,0.0188,-0.013
0.861,1.87,0.0188,-0.012
0.862,2.66,0.0188,-0.009
0.863,2.34,0.0188,-0.007
0.864,2.19,0.0188,-0.005
0.865,3.28,0.0188,-0.002
0.866,2.19,0.0188,0.002
0.867,0.78,0.0188,0.002
0.868,0.31,0.0183,0.003
0.869,-1.56,0.0175,0.003
0.87,-2.66,0.0175,0.000
0.871,-2.97,0.0175,-0.003
0.872,-2.81,0.0175,-0.006
0.873,-2.81,0.0175,-0.008
0.874,-2.03,0.0175,-0.011
0.875,-1.41,0.0175,-0.012
0.876,-0.47,0.0175,-0.014
0.877,1.87,0.0175,-0.013
0.878,1.56,0.0175,-0.010
0.879,2.03,0.0175,-0.010
0.88,3.75,0.0175,-0.006
0.881,2.81,0.0175,-0.003
0.882,2.34,0.0175,-0.001
0.883,2.19,0.0175,0.002
0.884,0.16,0.0180,0.004
0.885,-1.25,0.0191,0.003
0.886,-1.72,0.0191,0.001
0.887,-2.97,0.0191,-0.001
0.888,-3.59,0.0191,-0.005
0.889,-2.97,0.0191,-0.008
0.89,-2.34,0.0191,-0.011
0.891,-2.34,0.0191,-0.013
0.892,-0.94,0.0191,-0.015
0.893,0.94,0.0191,-0.015
0.894,0.47,0.0191,-0.013
0.895,1.09,0.0191,-0.014
0.896,3.12,0.0191,-0.011
0.897,3.28,0.0191,-0.007
0.898,2.81,0.0191,-0.005
0.899,3.28,0.0191,-0.002
0.9,1.72,0.0189,0.002
0.901,-0.47,0.0184,0.002
0.902,-0.78,0.0184,0.001
0.903,-2.19,0.0184,0.000
0.904,-2.97,0.0184,-0.003
0.905,-2.81,0.0184,-0.006
0.906,-3.44,0.0184,-0.009
0.907,-2.66,0.0184,-0.013
0.908,-1.41,0.0184,-0.014
0.909,-1.09,0.0184,-0.016
0.91,0.00,0.0184,-0.017
0.911,1.72,0.0184,-0.016
0.912,2.19,0.0184,-0.013
0.913,3.91,0.0184,-0.011
0.914,3.75,0.0184,-0.005
0.915,2.19,0.0184,-0.004
0.916,1.87,0.0184,-0.001
0.917,1.25,0.0184,0.000
0.918,0.63,0.0183,0.002
0.919,-0.63,0.0181,0.001
0.92,-1.25,0.0181,0.000
0.921,-2.66,0.0181,-0.001
0.922,-3.91,0.0181,-0.005
0.923,-3.28,0.0181,-0.009
0.924,-2.50,0.0181,-0.012
0.925,-1.72,0.0181,-0.014
0.926,0.00,0.0181,-0.015
0.927,1.25,0.0181,-0.014
0.928,2.03,0.0181,-0.013
0.929,3.44,0.0181,-0.010
0.93,2.97,0.0181,-0.006
0.931,2.34,0.0181,-0.004
0.932,3.59,0.0181,-0.001
0.933,2.81,0.0181,0.003
0.934,0.63,0.0184,0.005
0.935,-0.16,0.0191,0.004
0.936,-1.56,0.0191,0.004
0.937,-3.12,0.0191,0.001
0.938,-2.81,0.0191,-0.002
0.939,-2.97,0.0191,-0.004
0.94,-3.75,0.0191,-0.008
0.941,-2.50,0.0191,-0.012
0.942,-0.62,0.0191,-0.013
0.943,-0.16,0.0191,-0.013
0.944,1.25,0.0191,-0.013
0.945,3.59,0.0191,-0.011
0.946,4.37,0.0191,-0.006
0.947,3.44,0.0191,-0.002
0.948,2.66,0.0191,0.001
0.949,2.50,0.0191,0.003
0.95,2.03,0.0191,0.006
0.951,0.16,0.0186,0.007
0.952,-1.41,0.0178,0.006
0.953,-1.88,0.0178,0.005
0.954,-2.19,0.0178,0.003
0.955,-2.81,0.0178,0.000
0.956,-2.97,0.0178,-0.003
0.957,-1.72,0.0178,-0.006
0.958,-1.56,0.0178,-0.007
0.959,-1.88,0.0178,-0.009
0.96,-0.31,0.0178,-0.010
0.961,1.09,0.0178,-0.009
0.962,2.19,0.0178,-0.008
0.963,3.75,0.0178,-0.005
0.964,3.44,0.0178,-0.001
0.965,2.97,0.0178,0.002
0.966,3.12,0.0178,0.005
0.967,1.41,0.0183,0.008
0.968,-0.78,0.0194,0.008
0.969,-0.94,0.0194,0.007
0.97,-1.72,0.0194,0.006
0.971,-3.59,0.0194,0.003
0.972,-3.12,0.0194,-0.001
0.973,-2.66,0.0194,-0.003
0.974,-2.81,0.0194,-0.006
0.975,-1.87,0.0194,-0.009
0.976,-0.31,0.0194,-0.010
0.977,0.47,0.0194,-0.009
0.978,1.41,0.0194,-0.009
0.979,3.91,0.0194,-0.007
0.98,3.91,0.0194,-0.001
0.981,2.97,0.0194,0.001
0.982,3.91,0.0194,0.005
0.983,2.34,0.0194,0.009
0.984,0.31,0.0194,0.009
0.985,-0.16,0.0192,0.010
0.986,-1.09,0.0188,0.009
0.987,-2.34,0.0188,0.007
0.988,-3.12,0.0188,0.004
0.989,-3.12,0.0188,0.001
0.99,-3.28,0.0188,-0.002
0.991,-1.88,0.0188,-0.005
0.992,-1.25,0.0188,-0.006
0.993,-0.47,0.0188,-0.008
0.994,2.19,0.0188,-0.007
0.995,2.34,0.0188,-0.003
0.996,3.12,0.0188,-0.002
0.997,4.06,0.0188,0.003
0.998,2.66,0.0188,0.006
0.999,2.34,0.0188,0.008
1,2.50,0.0188,0.011
1.001,1.09,0.0186,0.013
1.002,-0.16,0.0184,0.013
1.003,-0.94,0.0184,0.013
1.004,-2.50,0.0184,0.011
1.005,-4.38,0.0184,0.008
1.006,-3.59,0.0184,0.003
1.007,-2.66,0.0184,0.001
1.008,-2.97,0.0184,-0.003
1.009,-1.25,0.0184,-0.005
1.01,1.09,0.0184,-0.005
1.011,1.72,0.0184,-0.003
1.012,1.87,0.0184,-0.002
1.013,3.12,0.0184,0.001
1.014,3.28,0.0184,0.004
1.015,3.12,0.0184,0.007
1.016,2.34,0.0184,0.011
1.017,0.62,0.0189,0.012
1.018,-0.47,0.0197,0.012
1.019,-0.78,0.0197,0.011
1.02,-1.72,0.0197,0.010
1.021,-2.97,0.0197,0.007
1.022,-2.97,0.0197,0.004
1.023,-2.81,0.0197,0.002
1.024,-2.66,0.0197,-0.001
1.025,-2.34,0.0197,-0.004
1.026,-0.94,0.0197,-0.006
1.027,1.72,0.0197,-0.006
1.028,2.81,0.0197,-0.003
1.029,2.34,0.0197,0.000
1.03,3.44,0.0197,0.002
1.031,4.53,0.0197,0.007
1.032,3.28,0.0197,0.011
1.033,1.25,0.0197,0.013
1.034,0.47,0.0197,0.014
1.035,-0.47,0.0192,0.014
1.036,-2.03,0.0181,0.013
1.037,-2.81,0.0181,0.010
1.038,-2.97,0.0181,0.007
1.039,-2.97,0.0181,0.004
1.04,-1.56,0.0181,0.001
1.041,-0.78,0.0181,0.001
1.042,-2.03,0.0181,-0.000
1.043,-0.63,0.0181,-0.003
1.044,1.56,0.0181,-0.002
1.045,2.34,0.0181,0.000
1.046,2.66,0.0181,0.003
1.047,2.97,0.0181,0.006
1.048,3.44,0.0181,0.009
1.049,3.13,0.0181,0.013
1.05,2.19,0.0181,0.015
1.051,0.31,0.0188,0.017
1.052,-1.09,0.0200,0.016
1.053,-1.56,0.0200,0.015
1.054,-2.81,0.0200,0.013
1.055,-3.28,0.0200,0.009
1.056,-2.81,0.0200,0.006
1.057,-3.75,0.0200,0.003
1.058,-2.66,0.0200,-0.001
1.059,-0.31,0.0200,-0.002
1.06,-0.31,0.0200,-0.002
1.061,1.09,0.0200,-0.003
1.062,4.22,0.0200,0.000
1.063,4.69,0.0200,0.006
1.064,3.44,0.0200,0.010
1.065,3.44,0.0200,0.013
1.066,2.34,0.0200,0.017
1.067,1.72,0.0200,0.018
1.068,0.47,0.0201,0.020
1.069,-1.88,0.0203,0.018
1.07,-2.50,0.0203,0.016
1.071,-2.81,0.0203,0.013
1.072,-3.75,0.0203,0.011
1.073,-3.91,0.0203,0.006
1.074,-2.50,0.0203,0.003
1.075,-1.56,0.0203,0.001
1.076,-0.47,0.0203,-0.000
1.077,0.94,0.0203,0.000
1.078,2.34,0.0203,0.002
1.079,2.66,0.0203,0.005
1.08,2.97,0.0203,0.007
1.081,2.97,0.0203,0.011
1.082,2.34,0.0203,0.013
1.083,2.03,0.0203,0.015
1.084,0.31,0.0199,0.017
1.085,-1.56,0.0191,0.016
1.086,-2.03,0.0191,0.014
1.087,-2.50,0.0191,0.012
1.088,-3.44,0.0191,0.009
1.089,-2.97,0.0191,0.005
1.09,-2.34,0.0191,0.003
1.091,-2.50,0.0191,0.000
1.092,-0.63,0.0191,-0.002
1.093,0.31,0.0180,-0.001
1.094,-0.47,0.0159,-0.002
1.095,1.87,0.0159,-0.002
1.096,4.69,0.0159,0.002
1.097,4.22,0.0159,0.007
1.098,3.28,0.0159,0.011
1.099,2.03,0.0159,0.014
1.1,0.31,0.0167,0.015
1.101,0.00,0.0181,0.015
1.102,-0.31,0.0181,0.015
1.103,-1.72,0.0181,0.014
1.104,-3.28,0.0181,0.011
1.105,-3.44,0.0181,0.007
1.106,-3.91,0.0181,0.004
1.107,-3.44,0.0181,-0.000
1.108,-1.56,0.0181,-0.003
1.109,-0.47,0.0181,-0.003
1.11,0.47,0.0181,-0.003
1.111,1.72,0.0181,-0.003
1.112,2.34,0.0181,0.000
1.113,2.97,0.0181,0.002
1.114,3.75,0.0181,0.006
1.115,3.59,0.0181,0.010
1.116,2.19,0.0181,0.013
1.117,1.41,0.0181,0.014
1.118,0.31,0.0197,0.016
1.119,-2.34,0.0228,0.015
1.12,-2.81,0.0228,0.011
1.121,-3.28,0.0228,0.009
1.122,-4.22,0.0228,0.005
1.123,-3.44,0.0228,0.001
1.124,-2.34,0.0228,-0.002
1.125,-2.34,0.0228,-0.004
1.126,-0.47,0.0228,-0.007
1.127,1.87,0.0228,-0.005
1.128,1.41,0.0228,-0.003
1.129,2.19,0.0228,-0.002
1.13,3.44,0.0228,0.001
1.131,2.97,0.0228,0.005
1.132,2.66,0.0228,0.007
1.133,1.87,0.0228,0.010
1.134,0.00,0.0218,0.011
1.135,-1.41,0.0197,0.010
1.136,-1.25,0.0197,0.008
1.137,-1.72,0.0197,0.007
1.138,-3.59,0.0197,0.005
1.139,-3.28,0.0197,0.000
1.14,-3.59,0.0197,-0.002
1.141,-3.12,0.0197,-0.007
1.142,-0.78,0.0197,-0.008
1.143,-0.31,0.0197,-0.008
1.144,0.94,0.0197,-0.009
1.145,2.66,0.0197,-0.007
1.146,2.81,0.0197,-0.003
1.147,3.12,0.0197,-0.001
1.148,3.91,0.0197,0.003
1.149,2.03,0.0197,0.007
1.15,1.09,0.0197,0.007
1.151,1.25,0.0197,0.009
1.152,-0.78,0.0197,0.009
1.153,-2.50,0.0197,0.007
1.154,-2.81,0.0197,0.004
1.155,-3.28,0.0197,0.002
1.156,-3.59,0.0197,-0.002
1.157,-2.34,0.0197,-0.005
1.158,-1.56,0.0197,-0.007
1.159,-1.72,0.0197,-0.008
1.16,-0.31,0.0197,-0.010
1.161,1.56,0.0197,-0.009
1.162,1.87,0.0197,-0.007
1.163,2.50,0.0197,-0.005
1.164,3.91,0.0197,-0.002
1.165,4.06,0.0197,0.003
1.166,2.66,0.0197,0.006
1.167,1.25,0.0197,0.008
1.168,-0.31,0.0198,0.008
1.169,-1.56,0.0200,0.007
1.17,-1.72,0.0200,0.005
1.171,-3.28,0.0200,0.004
1.172,-3.91,0.0200,-0.001
1.173,-2.66,0.0200,-0.004
1.174,-2.81,0.0200,-0.007
1.175,-2.50,0.0200,-0.010
1.176,-0.78,0.0200,-0.012
1.177,0.62,0.0200,-0.011
1.178,2.19,0.0200,-0.010
1.179,3.91,0.0200,-0.007
1.18,3.75,0.0200,-0.003
1.181,3.28,0.0200,0.001
1.182,3.12,0.0200,0.004
1.183,2.50,0.0200,0.007
1.184,0.78,0.0208,0.009
1.185,-0.94,0.0225,0.008
1.186,-1.72,0.0225,0.007
1.187,-3.12,0.0225,0.005
1.188,-3.91,0.0225,0.001
1.189,-4.06,0.0225,-0.003
1.19,-3.59,0.0225,-0.007
1.191,-2.66,0.0225,-0.010
1.192,-1.72,0.0225,-0.013
1.193,-0.16,0.0225,-0.013
1.194,1.56,0.0225,-0.013
1.195,2.50,0.0225,-0.010
1.196,2.03,0.0225,-0.008
1.197,2.81,0.0225,-0.006
1.198,2.97,0.0225,-0.002
1.199,1.87,0.0225,-0.000
1.2,2.03,0.0225,0.002
1.201,1.09,0.0211,0.004
1.202,-1.41,0.0184,0.004
1.203,-1.87,0.0184,0.001
1.204,-1.87,0.0184,0.000
1.205,-2.97,0.0184,-0.003
1.206,-4.06,0.0184,-0.006
1.207,-3.44,0.0184,-0.011
1.208,-1.88,0.0184,-0.013
1.209,-0.94,0.0184,-0.015
1.21,0.16,0.0184,-0.015
1.211,1.41,0.0184,-0.014
1.212,2.50,0.0184,-0.012
1.213,2.97,0.0184,-0.009
1.214,3.44,0.0184,-0.006
1.215,2.66,0.0184,-0.003
1.216,2.19,0.0184,-0.001
1.217,1.09,0.0180,0.002
1.218,-0.31,0.0172,0.002
1.219,-1.41,0.0172,0.001
1.22,-2.50,0.0172,-0.001
1.221,-3.12,0.0172,-0.004
1.222,-3.44,0.0172,-0.007
1.223,-2.81,0.0172,-0.011
1.224,-2.03,0.0172,-0.013
1.225,-1.09,0.0172,-0.015
1.226,0.62,0.0172,-0.015
1.227,1.25,0.0172,-0.013
1.228,1.72,0.0172,-0.013
1.229,3.44,0.0172,-0.010
1.23,2.97,0.0172,-0.006
1.231,2.50,0.0172,-0.004
1.232,2.97,0.0172,-0.001
1.233,2.34,0.0172,0.002
1.234,0.78,0.0174,0.004
1.235,-1.41,0.0178,0.003
1.236,-1.87,0.0178,0.001
1.237,-1.87,0.0178,-0.000
1.238,-2.97,0.0178,-0.003
1.239,-3.59,0.0178,-0.006
1.24,-2.81,0.0178,-0.010
1.241,-1.09,0.0178,-0.012
1.242,-1.09,0.0178,-0.012
1.243,0.16,0.0178,-0.014
1.244,1.72,0.0178,-0.012
1.245,1.88,0.0178,-0.011
1.246,3.12,0.0178,-0.008
1.247,2.97,0.0178,-0.004
1.248,2.50,0.0178,-0.002
1.249,2.97,0.0178,0.001
1.25,2.50,0.0178,0.004
1.251,0.31,0.0189,0.006
1.252,-0.78,0.0209,0.004
1.253,-0.47,0.0209,0.004
1.254,-2.97,0.0209,0.003
1.255,-3.91,0.0209,-0.002
1.256,-2.97,0.0209,-0.004
1.257,-3.12,0.0209,-0.008
1.258,-2.50,0.0209,-0.011
1.259,-0.78,0.0209,-0.013
1.26,1.09,0.0209,-0.012
1.261,1.87,0.0209,-0.011
1.262,3.12,0.0209,-0.008
1.263,3.75,0.0209,-0.004
1.264,3.59,0.0209,-0.001
1.265,4.22,0.0209,0.003
1.266,2.66,0.0209,0.007
1.267,0.63,0.0209,0.008
1.268,-0.31,0.0200,0.009
1.269,-1.56,0.0181,0.007
1.27,-2.03,0.0181,0.006
1.271,-2.97,0.0181,0.003
1.272,-2.97,0.0181,-0.000
1.273,-2.19,0.0181,-0.003
1.274,-2.03,0.0181,-0.005
1.275,-1.72,0.0181,-0.007
1.276,-0.78,0.0181,-0.008
1.277,1.09,0.0181,-0.008
1.278,2.50,0.0181,-0.006
1.279,2.66,0.0181,-0.003
1.28,3.59,0.0181,-0.001
1.281,3.12,0.0181,0.004
1.282,1.72,0.0181,0.006
1.283,2.19,0.0181,0.007
1.284,1.56,0.0181,0.010
1.285,-0.16,0.0181,0.011
1.286,-1.72,0.0181,0.010
1.287,-2.66,0.0181,0.007
1.288,-3.75,0.0181,0.004
1.289,-2.81,0.0181,-0.000
1.29,-1.72,0.0181,-0.001
1.291,-2.50,0.0181,-0.004
1.292,-1.41,0.0181,-0.006
1.293,0.16,0.0181,-0.007
1.294,0.94,0.0181,-0.006
1.295,2.50,0.0181,-0.005
1.296,2.81,0.0181,-0.001
1.297,2.50,0.0181,0.001
1.298,3.44,0.0181,0.004
1.299,3.75,0.0181,0.008
1.3,2.50,0.0181,0.012
1.301,0.31,0.0186,0.013
1.302,-1.09,0.0197,0.012
1.303,-2.66,0.0197,0.011
1.304,-3.91,0.0197,0.007
1.305,-3.91,0.0197,0.003
1.306,-3.12,0.0197,-0.001
1.307,-2.50,0.0197,-0.003
1.308,-1.72,0.0197,-0.006
1.309,-0.31,0.0197,-0.007
1.31,0.16,0.0197,-0.007
1.311,1.72,0.0197,-0.007
1.312,2.50,0.0197,-0.003
1.313,2.03,0.0197,-0.002
1.314,3.12,0.0197,0.001
1.315,3.75,0.0197,0.005
1.316,3.28,0.0197,0.008
1.317,1.87,0.0197,0.011
1.318,0.47,0.0192,0.012
1.319,-0.94,0.0181,0.012
1.32,-2.34,0.0181,0.010
1.321,-3.13,0.0181,0.007
1.322,-3.12,0.0181,0.004
1.323,-2.19,0.0181,0.001
1.324,-2.03,0.0181,-0.000
1.325,-2.19,0.0181,-0.003
1.326,-1.09,0.0181,-0.005
1.327,0.47,0.0181,-0.005
1.328,1.87,0.0181,-0.004
1.329,2.97,0.0181,-0.001
1.33,4.06,0.0181,0.002
1.331,3.91,0.0181,0.007
1.332,3.12,0.0181,0.010
1.333,2.19,0.0181,0.013
1.334,0.31,0.0180,0.014
1.335,-0.47,0.0178,0.014
1.336,-0.94,0.0178,0.013
1.337,-3.12,0.0178,0.012
1.338,-3.75,0.0178,0.007
1.339,-2.50,0.0178,0.004
1.34,-2.66,0.0178,0.002
1.341,-2.81,0.0178,-0.001
1.342,-1.25,0.0178,-0.003
1.343,0.16,0.0178,-0.003
1.344,1.72,0.0178,-0.003
1.345,2.34,0.0178,0.000
1.346,2.50,0.0178,0.002
1.347,3.28,0.0178,0.005
1.348,3.13,0.0178,0.008
1.349,2.66,0.0178,0.011
1.35,1.25,0.0178,0.013
1.351,0.62,0.0178,0.014
1.352,0.00,0.0182,0.015
1.353,-2.19,0.0191,0.014
1.354,-3.28,0.0191,0.010
1.355,-2.66,0.0191,0.007
1.356,-2.66,0.0191,0.005
1.357,-2.97,0.0191,0.002
1.358,-2.66,0.0191,-0.001
1.359,-1.72,0.0191,-0.003
1.36,0.63,0.0191,-0.004
1.361,1.41,0.0191,-0.002
1.362,2.34,0.0191,-0.002
1.363,4.22,0.0191,0.003
1.364,3.44,0.0191,0.007
1.365,2.97,0.0191,0.009
1.366,2.66,0.0191,0.013
1.367,1.87,0.0191,0.015
1.368,0.62,0.0185,0.017
1.369,-1.09,0.0175,0.016
1.37,-1.88,0.0175,0.014
1.371,-2.97,0.0175,0.012
1.372,-3.28,0.0175,0.008
1.373,-2.81,0.0175,0.006
1.374,-2.66,0.0175,0.003
1.375,-1.87,0.0175,0.000
1.376,0.16,0.0175,-0.001
1.377,1.56,0.0175,0.001
1.378,1.56,0.0175,0.002
1.379,2.19,0.0175,0.004
1.38,3.28,0.0175,0.007
1.381,2.81,0.0175,0.010
1.382,2.66,0.0175,0.012
1.383,2.97,0.0175,0.016
1.384,0.94,0.0176,0.018
1.385,-0.62,0.0178,0.018
1.386,-1.56,0.0178,0.017
1.387,-2.81,0.0178,0.014
1.388,-3.13,0.0178,0.011
1.389,-3.13,0.0178,0.008
1.39,-3.44,0.0178,0.005
1.391,-2.03,0.0178,0.001
1.392,-0.47,0.0178,0.001
1.393,0.00,0.0178,0.000
1.394,1.25,0.0178,0.001
1.395,1.41,0.0178,0.003
1.396,2.19,0.0178,0.004
1.397,3.59,0.0178,0.007
1.398,3.59,0.0178,0.011
1.399,2.50,0.0178,0.014
1.4,1.25,0.0178,0.016
1.401,-0.31,0.0191,0.017
1.402,-2.66,0.0216,0.015
1.403,-2.66,0.0216,0.012
1.404,-2.03,0.0216,0.010
1.405,-2.66,0.0216,0.007
1.406,-3.28,0.0216,0.005
1.407,-3.28,0.0216,0.001
1.408,-2.81,0.0216,-0.002
1.409,-0.94,0.0216,-0.005
1.41,0.78,0.0216,-0.004
1.411,1.25,0.0216,-0.003
1.412,2.66,0.0216,-0.001
1.413,3.75,0.0216,0.002
1.414,3.44,0.0216,0.006
1.415,2.81,0.0216,0.009
1.416,2.50,0.0216,0.012
1.417,0.78,0.0204,0.014
1.418,-0.78,0.0181,0.013
1.419,-1.25,0.0181,0.013
1.42,-1.88,0.0181,0.011
1.421,-3.28,0.0181,0.009
1.422,-2.97,0.0181,0.004
1.423,-2.81,0.0181,0.003
1.424,-3.44,0.0181,-0.001
1.425,-1.25,0.0181,-0.004
1.426,0.31,0.0181,-0.004
1.427,0.31,0.0181,-0.003
1.428,1.41,0.0181,-0.003
1.429,2.81,0.0181,-0.001
1.43,2.34,0.0181,0.003
1.431,2.81,0.0181,0.004
1.432,3.44,0.0181,0.008
1.433,2.03,0.0181,0.011
1.434,1.41,0.0181,0.012
1.435,0.47,0.0181,0.014
1.436,-1.41,0.0181,0.013
1.437,-2.81,0.0181,0.011
1.438,-3.44,0.0181,0.007
1.439,-3.28,0.0181,0.004
1.44,-2.81,0.0181,0.001
1.441,-2.34,0.0181,-0.002
1.442,-1.41,0.0181,-0.004
1.443,-0.16,0.0181,-0.004
1.444,1.25,0.0181,-0.004
1.445,1.72,0.0181,-0.002
1.446,2.19,0.0181,-0.001
1.447,3.59,0.0181,0.003
1.448,3.28,0.0181,0.007
1.449,2.19,0.0181,0.009
1.45,2.50,0.0181,0.011
1.451,1.09,0.0185,0.014
1.452,-1.41,0.0194,0.013
1.453,-1.56,0.0194,0.011
1.454,-2.03,0.0194,0.010
1.455,-3.59,0.0194,0.007
1.456,-2.81,0.0194,0.003
1.457,-2.34,0.0194,0.002
1.458,-2.34,0.0194,-0.002
1.459,-1.72,0.0194,-0.003
1.46,-0.63,0.0194,-0.005
1.461,1.72,0.0194,-0.004
1.462,2.97,0.0194,-0.002
1.463,2.97,0.0194,0.002
1.464,2.81,0.0194,0.004
1.465,2.97,0.0194,0.007
1.466,2.03,0.0194,0.010
1.467,1.09,0.0194,0.011
1.468,-0.47,0.0193,0.012
1.469,-1.56,0.0191,0.010
1.47,-1.56,0.0191,0.009
1.471,-2.50,0.0191,0.007
1.472,-2.97,0.0191,0.004
1.473,-2.97,0.0191,0.001
1.474,-2.34,0.0191,-0.002
1.475,-1.09,0.0191,-0.003
1.476,-0.94,0.0191,-0.004
1.477,-0.16,0.0191,-0.005
1.478,2.34,0.0191,-0.004
1.479,3.28,0.0191,-0.001
1.48,3.75,0.0191,0.002
1.481,3.44,0.0191,0.007
1.482,2.19,0.0191,0.009
1.483,2.34,0.0191,0.011
1.484,1.72,0.0191,0.014
1.485,-0.47,0.0191,0.015
1.486,-1.41,0.0191,0.013
1.487,-2.19,0.0191,0.012
1.488,-3.75,0.0191,0.008
1.489,-3.28,0.0191,0.004
1.49,-2.66,0.0191,0.002
1.491,-2.81,0.0191,-0.001
1.492,-1.72,0.0191,-0.004
1.493,0.47,0.0191,-0.004
1.494,1.41,0.0191,-0.003
1.495,1.72,0.0191,-0.002
1.496,2.19,0.0191,0.001
1.497,3.28,0.0191,0.003
1.498,3.59,0.0191,0.007
1.499,2.34,0.0191,0.010
1.5,2.03,0.0191,0.012
1.501,1.09,0.0188,0.014
1.502,-0.16,0.0181,0.014
1.503,-1.25,0.0181,0.014
1.504,-3.28,0.0181,0.012
1.505,-3.91,0.0181,0.007
1.506,-3.59,0.0181,0.004
1.507,-2.81,0.0181,0.000
1.508,-1.72,0.0181,-0.002
1.509,-1.09,0.0181,-0.003
1.51,0.16,0.0181,-0.004
1.511,2.03,0.0181,-0.003
1.512,3.28,0.0181,0.000
1.513,3.12,0.0181,0.003
1.514,3.59,0.0181,0.006
1.515,2.97,0.0181,0.011
1.516,1.25,0.0181,0.012
1.517,1.09,0.0181,0.013
1.518,0.63,0.0190,0.014
1.519,-1.09,0.0206,0.014
1.52,-2.66,0.0206,0.012
1.521,-2.81,0.0206,0.009
1.522,-2.50,0.0206,0.007
1.523,-3.28,0.0206,0.004
1.524,-3.44,0.0206,0.000
1.525,-2.66,0.0206,-0.003
1.526,-1.72,0.0206,-0.005
1.527,0.00,0.0206,-0.006
1.528,1.56,0.0206,-0.005
1.529,2.50,0.0206,-0.003
1.53,2.81,0.0206,-0.000
1.531,2.81,0.0206,0.003
1.532,2.81,0.0206,0.005
1.533,2.81,0.0206,0.008
1.534,1.25,0.0205,0.011
1.535,-1.41,0.0203,0.011
1.536,-2.19,0.0203,0.008
1.537,-2.19,0.0203,0.006
1.538,-2.66,0.0203,0.004
1.539,-3.12,0.0203,0.001
1.54,-3.44,0.0203,-0.003
1.541,-2.97,0.0203,-0.006
1.542,-1.72,0.0203,-0.008
1.543,-0.47,0.0203,-0.009
1.544,1.25,0.0203,-0.009
1.545,3.28,0.0203,-0.007
1.546,3.75,0.0203,-0.003
1.547,3.12,0.0203,0.001
1.548,3.59,0.0203,0.003
1.549,3.28,0.0203,0.008
1.55,0.78,0.0194,0.010
1.551,-0.47,0.0175,0.009
1.552,-0.31,0.0175,0.009
1.553,-1.72,0.0175,0.009
1.554,-2.81,0.0175,0.006
1.555,-2.81,0.0175,0.003
1.556,-3.44,0.0175,0.000
1.557,-3.12,0.0175,-0.004
1.558,-1.72,0.0175,-0.006
1.559,-0.62,0.0175,-0.007
1.56,0.31,0.0175,-0.007
1.561,1.56,0.0175,-0.007
1.562,2.50,0.0175,-0.004
1.563,3.12,0.0175,-0.002
1.564,3.28,0.0175,0.002
1.565,2.19,0.0175,0.005
1.566,2.19,0.0175,0.006
1.567,2.50,0.0175,0.009
1.568,-0.16,0.0182,0.011
1.569,-2.19,0.0197,0.009
1.57,-2.50,0.0197,0.007
1.571,-3.12,0.0197,0.004
1.572,-3.59,0.0197,0.001
1.573,-2.66,0.0197,-0.003
1.574,-1.87,0.0197,-0.005
1.575,-1.88,0.0197,-0.007
1.576,-0.31,0.0197,-0.008
1.577,0.78,0.0197,-0.007
1.578,2.19,0.0197,-0.007
1.579,3.75,0.0197,-0.003
1.58,3.44,0.0197,0.001
1.581,3.12,0.0197,0.004
1.582,2.50,0.0197,0.007
1.583,1.41,0.0197,0.009
1.584,0.31,0.0193,0.010
1.585,-0.94,0.0184,0.009
1.586,-2.50,0.0184,0.008
1.587,-2.81,0.0184,0.004
1.588,-2.66,0.0184,0.002
1.589,-2.66,0.0184,-0.001
1.59,-2.81,0.0184,-0.003
1.591,-2.19,0.0184,-0.007
1.592,-1.09,0.0184,-0.007
1.593,-0.47,0.0184,-0.009
1.594,0.94,0.0184,-0.008
1.595,1.72,0.0184,-0.007
1.596,2.34,0.0184,-0.005
1.597,3.44,0.0184,-0.002
1.598,3.44,0.0184,0.002
1.599,2.50,0.0184,0.005
1.6,1.88,0.0184,0.007
1.601,0.78,0.0189,0.008
1.602,-0.63,0.0197,0.008
1.603,-1.25,0.0197,0.007
1.604,-2.50,0.0197,0.006
1.605,-3.44,0.0197,0.002
1.606,-2.97,0.0197,-0.001
1.607,-2.81,0.0197,-0.004
1.608,-2.34,0.0197,-0.007
1.609,-1.09,0.0197,-0.008
1.61,0.63,0.0197,-0.009
1.611,1.09,0.0197,-0.007
1.612,2.34,0.0197,-0.007
1.613,4.06,0.0197,-0.003
1.614,3.59,0.0197,0.002
1.615,2.97,0.0197,0.005
1.616,3.12,0.0197,0.007
1.617,1.88,0.0197,0.011
1.618,0.00,0.0192,0.011
1.619,-0.63,0.0181,0.011
1.62,-2.34,0.0181,0.010
1.621,-3.44,0.0181,0.006
1.622,-2.66,0.0181,0.003
1.623,-2.66,0.0181,0.001
1.624,-3.59,0.0181,-0.002
1.625,-2.34,0.0181,-0.006
1.626,0.00,0.0181,-0.007
1.627,0.47,0.0181,-0.006
1.628,1.09,0.0181,-0.006
1.629,2.50,0.0181,-0.004
1.63,2.66,0.0181,-0.001
1.631,3.12,0.0181,0.001
1.632,3.44,0.0181,0.005
1.633,2.19,0.0181,0.008
1.634,0.78,0.0183,0.010
1.635,-0.31,0.0188,0.010
1.636,-1.41,0.0188,0.009
1.637,-2.19,0.0188,0.007
1.638,-3.28,0.0188,0.005
1.639,-3.59,0.0188,0.000
1.64,-2.66,0.0188,-0.003
1.641,-1.72,0.0188,-0.005
1.642,-2.03,0.0188,-0.006
1.643,-1.25,0.0188,-0.009
1.644,1.72,0.0188,-0.008
1.645,2.50,0.0188,-0.006
1.646,2.66,0.0188,-0.003
1.647,3.28,0.0188,-0.000
1.648,2.66,0.0188,0.003
1.649,2.81,0.0188,0.005
1.65,2.97,0.0188,0.009
1.651,0.78,0.0189,0.011
1.652,-0.78,0.0191,0.010
1.653,-1.72,0.0191,0.009
1.654,-2.66,0.0191,0.007
1.655,-3.12,0.0191,0.004
1.656,-2.66,0.0191,0.001
1.657,-2.50,0.0191,-0.001
1.658,-3.28,0.0191,-0.004
1.659,-1.72,0.0191,-0.008
1.66,0.31,0.0191,-0.008
1.661,1.09,0.0191,-0.007
1.662,2.34,0.0191,-0.006
1.663,3.12,0.0191,-0.003
1.664,2.97,0.0191,0.001
1.665,3.12,0.0191,0.003
1.666,3.28,0.0191,0.007
1.667,2.19,0.0191,0.010
1.668,1.25,0.0191,0.011
1.669,0.16,0.0192,0.013
1.67,-2.66,0.0194,0.012
1.671,-4.06,0.0194,0.007
1.672,-3.28,0.0194,0.003
1.673,-2.50,0.0194,0.001
1.674,-2.81,0.0194,-0.002
1.675,-2.03,0.0194,-0.005
1.676,-0.47,0.0194,-0.006
1.677,1.09,0.0194,-0.006
1.678,3.12,0.0194,-0.003
1.679,3.75,0.0194,0.000
1.68,3.75,0.0194,0.004
1.681,3.44,0.0194,0.008
1.682,2.34,0.0194,0.011
1.683,1.25,0.0194,0.013
1.684,1.25,0.0194,0.013
1.685,0.00,0.0194,0.015
1.686,-1.56,0.0194,0.013
1.687,-2.19,0.0194,0.012
1.688,-3.12,0.0194,0.009
1.689,-3.28,0.0194,0.006
1.69,-2.50,0.0194,0.003
1.691,-2.34,0.0194,0.001
1.692,-1.72,0.0194,-0.002
1.693,0.00,0.0194,-0.003
1.694,1.09,0.0194,-0.002
1.695,1.56,0.0194,-0.001
1.696,3.75,0.0194,0.001
1.697,4.69,0.0194,0.007
1.698,2.81,0.0194,0.010
1.699,2.50,0.0194,0.013
1.7,2.03,0.0194,0.015
1.701,0.62,0.0194,0.017
1.702,0.16,0.0194,0.017
1.703,-0.62,0.0186,0.017
1.704,-2.81,0.0172,0.015
1.705,-4.06,0.0172,0.011
1.706,-3.28,0.0172,0.007
1.707,-2.97,0.0172,0.005
1.708,-2.50,0.0172,0.001
1.709,-0.63,0.0172,-0.000
1.71,0.94,0.0172,0.000
1.711,2.19,0.0172,0.002
1.712,2.81,0.0172,0.004
1.713,2.34,0.0172,0.007
1.714,2.34,0.0172,0.009
1.715,2.81,0.0172,0.012
1.716,2.03,0.0172,0.015
1.717,1.09,0.0172,0.016
1.718,-0.16,0.0183,0.017
1.719,-1.88,0.0206,0.016
1.72,-2.50,0.0206,0.013
1.721,-2.81,0.0206,0.011
1.722,-3.28,0.0206,0.007
1.723,-3.44,0.0206,0.004
1.724,-2.97,0.0206,0.001
1.725,-1.87,0.0206,-0.002
1.726,-0.94,0.0206,-0.003
1.727,0.31,0.0206,-0.004
1.728,1.41,0.0206,-0.003
1.729,2.19,0.0206,-0.001
1.73,3.75,0.0206,0.002
1.731,4.22,0.0206,0.007
1.732,3.28,0.0206,0.010
1.733,2.66,0.0206,0.013
1.734,1.88,0.0206,0.016
1.735,-0.16,0.0195,0.017
1.736,-1.56,0.0172,0.015
1.737,-2.66,0.0172,0.014
1.738,-3.44,0.0172,0.010
1.739,-3.12,0.0172,0.007
1.74,-2.97,0.0172,0.004
1.741,-1.87,0.0172,0.001
1.742,-0.63,0.0172,0.000
1.743,-0.16,0.0172,-0.000
1.744,0.16,0.0172,-0.000
1.745,1.56,0.0172,0.000
1.746,3.59,0.0172,0.003
1.747,3.12,0.0172,0.007
1.748,2.50,0.0172,0.009
1.749,2.97,0.0172,0.012
1.75,1.41,0.0172,0.015
1.751,0.16,0.0172,0.015
1.752,-0.78,0.0178,0.015
1.753,-2.19,0.0191,0.013
1.754,-2.81,0.0191,0.011
1.755,-3.12,0.0191,0.008
1.756,-2.66,0.0191,0.005
1.757,-2.19,0.0191,0.003
1.758,-2.19,0.0191,0.000
1.759,-2.03,0.0191,-0.002
1.76,-0.94,0.0191,-0.004
1.761,0.94,0.0191,-0.004
1.762,2.50,0.0191,-0.002
1.763,3.75,0.0191,0.001
1.764,4.06,0.0191,0.006
1.765,2.66,0.0191,0.009
1.766,1.56,0.0191,0.011
1.767,2.34,0.0191,0.013
1.768,0.47,0.0190,0.016
1.769,-1.88,0.0187,0.013
1.77,-1.72,0.0187,0.012
1.771,-2.81,0.0187,0.010
1.772,-3.28,0.0187,0.006
1.773,-2.66,0.0187,0.003
1.774,-1.41,0.0187,0.001
1.775,-0.78,0.0187,0.001
1.776,-0.31,0.0187,-0.001
1.777,1.09,0.0187,0.000
1.778,1.41,0.0187,0.002
1.779,3.12,0.0187,0.003
1.78,4.06,0.0187,0.008
1.781,2.81,0.0187,0.011
1.782,2.81,0.0187,0.013
1.783,2.34,0.0187,0.017
1.784,1.09,0.0187,0.018
1.785,-0.47,0.0192,0.019
1.786,-1.56,0.0200,0.017
1.787,-2.34,0.0200,0.016
1.788,-2.81,0.0200,0.013
1.789,-3.44,0.0200,0.010
1.79,-3.59,0.0200,0.006
1.791,-2.34,0.0200,0.003
1.792,-0.94,0.0200,0.001
1.793,0.00,0.0200,0.001
1.794,0.47,0.0200,0.001
1.795,2.50,0.0200,0.002
1.796,3.44,0.0200,0.006
1.797,2.81,0.0200,0.009
1.798,3.59,0.0200,0.012
1.799,3.59,0.0200,0.016
1.8,2.50,0.0200,0.019
1.801,1.25,0.0200,0.021
1.802,-0.78,0.0195,0.021
1.803,-1.88,0.0184,0.019
1.804,-2.19,0.0184,0.018
1.805,-3.12,0.0184,0.015
1.806,-3.44,0.0184,0.011
1.807,-2.03,0.0184,0.008
1.808,-1.72,0.0184,0.007
1.809,-2.19,0.0184,0.005
1.81,-0.94,0.0184,0.003
1.811,0.47,0.0184,0.003
1.812,2.34,0.0184,0.004
1.813,4.37,0.0184,0.007
1.814,3.44,0.0184,0.013
1.815,2.19,0.0184,0.014
1.816,2.50,0.0184,0.017
1.817,1.88,0.0184,0.019
1.818,-0.47,0.0191,0.021
1.819,-2.19,0.0203,0.018
1.82,-1.87,0.0203,0.016
1.821,-3.44,0.0203,0.015
1.822,-4.22,0.0203,0.009
1.823,-2.97,0.0203,0.006
1.824,-2.19,0.0203,0.003
1.825,-1.56,0.0203,0.002
1.826,-0.63,0.0203,0.000
1.827,0.31,0.0203,0.001
1.828,1.25,0.0203,0.001
1.829,2.81,0.0203,0.003
1.83,2.66,0.0203,0.007
1.831,2.66,0.0203,0.008
1.832,3.75,0.0203,0.012
1.833,2.19,0.0203,0.016
1.834,0.47,0.0203,0.016
1.835,0.16,0.0194,0.017
1.836,-1.41,0.0175,0.017
1.837,-1.72,0.0175,0.014
1.838,-2.50,0.0175,0.013
1.839,-3.75,0.0175,0.009
1.84,-2.97,0.0175,0.006
1.841,-2.19,0.0175,0.003
1.842,-1.87,0.0175,0.001
1.843,-0.16,0.0175,-0.001
1.844,2.03,0.0175,0.001
1.845,2.50,0.0175,0.003
1.846,2.50,0.0175,0.006
1.847,2.66,0.0175,0.008
1.848,2.34,0.0175,0.011
1.849,1.72,0.0175,0.013
1.85,1.25,0.0175,0.015
1.851,1.09,0.0175,0.016
1.852,0.00,0.0178,0.017
1.853,-1.88,0.0184,0.016
1.854,-2.81,0.0184,0.013
1.855,-3.91,0.0184,0.010
1.856,-3.59,0.0184,0.005
1.857,-2.19,0.0184,0.003
1.858,-1.87,0.0184,0.001
1.859,-1.09,0.0184,-0.001
1.86,-0.31,0.0184,-0.001
1.861,0.94,0.0184,-0.002
1.862,2.50,0.0184,0.001
1.863,3.28,0.0184,0.003
1.864,2.19,0.0184,0.007
1.865,2.50,0.0184,0.008
1.866,3.44,0.0184,0.012
1.867,1.56,0.0184,0.015
1.868,-0.47,0.0190,0.015
1.869,-1.88,0.0200,0.014
1.87,-2.97,0.0200,0.012
1.871,-3.12,0.0200,0.008
1.872,-2.66,0.0200,0.005
1.873,-2.97,0.0200,0.003
1.874,-2.97,0.0200,-0.001
1.875,-1.72,0.0200,-0.003
1.876,-0.63,0.0200,-0.004
1.877,0.31,0.0200,-0.005
1.878,2.66,0.0200,-0.003
1.879,3.44,0.0200,0.001
1.88,2.81,0.0200,0.003
1.881,2.97,0.0200,0.006
1.882,2.19,0.0200,0.009
1.883,1.09,0.0200,0.011
1.884,0.31,0.0201,0.012
1.885,-0.78,0.0203,0.011
1.886,-1.41,0.0203,0.010
1.887,-2.34,0.0203,0.008
1.888,-3.44,0.0203,0.005
1.889,-3.44,0.0203,0.002
1.89,-2.81,0.0203,-0.002
1.891,-2.03,0.0203,-0.004
1.892,-1.41,0.0203,-0.006
1.893,-1.56,0.0203,-0.007
1.894,0.16,0.0203,-0.009
1.895,2.50,0.0203,-0.007
1.896,3.59,0.0203,-0.004
1.897,3.91,0.0203,0.001
1.898,2.81,0.0203,0.004
1.899,2.03,0.0203,0.006
1.9,1.87,0.0203,0.008
1.901,0.31,0.0192,0.010
1.902,-1.09,0.0169,0.009
1.903,-1.41,0.0169,0.008
1.904,-2.34,0.0169,0.006
1.905,-2.50,0.0169,0.003
1.906,-2.19,0.0169,0.001
1.907,-3.28,0.0169,-0.001
1.908,-2.81,0.0169,-0.006
1.909,-0.62,0.0169,-0.007
1.91,0.16,0.0169,-0.007
1.911,1.41,0.0169,-0.007
1.912,3.44,0.0169,-0.004
1.913,4.06,0.0169,0.000
1.914,2.81,0.0169,0.004
1.915,1.88,0.0169,0.006
1.916,2.19,0.0169,0.008
1.917,1.09,0.0177,0.010
1.918,0.00,0.0194,0.010
1.919,-0.78,0.0194,0.010
1.92,-2.66,0.0194,0.008
1.921,-2.81,0.0194,0.005
1.922,-2.81,0.0194,0.003
1.923,-3.59,0.0194,-0.001
1.924,-3.44,0.0194,-0.004
1.925,-1.72,0.0194,-0.007
1.926,-0.78,0.0194,-0.008
1.927,0.63,0.0194,-0.009
1.928,1.72,0.0194,-0.007
1.929,1.56,0.0194,-0.006
1.93,3.44,0.0194,-0.003
1.931,4.53,0.0194,0.001
1.932,2.97,0.0194,0.006
1.933,1.09,0.0194,0.007
1.934,0.78,0.0194,0.008
1.935,-0.47,0.0191,0.009
1.936,-1.25,0.0184,0.007
1.937,-1.25,0.0184,0.006
1.938,-3.44,0.0184,0.004
1.939,-4.06,0.0184,-0.001
1.94,-2.81,0.0184,-0.004
1.941,-2.34,0.0184,-0.006
1.942,-1.72,0.0184,-0.008
1.943,0.16,0.0184,-0.010
1.944,0.47,0.0169,-0.008
1.945,1.09,0.0137,-0.009
1.946,3.44,0.0137,-0.006
1.947,3.12,0.0137,-0.002
1.948,2.03,0.0137,0.000
1.949,2.34,0.0137,0.002
1.95,1.72,0.0137,0.005
1.951,0.31,0.0148,0.006
1.952,-0.63,0.0169,0.006
1.953,-1.88,0.0169,0.004
1.954,-2.97,0.0169,0.002
1.955,-2.66,0.0169,-0.002
1.956,-2.66,0.0169,-0.003
1.957,-2.81,0.0169,-0.007
1.958,-1.41,0.0169,-0.009
1.959,-0.78,0.0169,-0.010
1.96,-0.47,0.0169,-0.011
1.961,0.94,0.0169,-0.011
1.962,2.97,0.0169,-0.009
1.963,3.75,0.0169,-0.005
1.964,3.75,0.0169,-0.001
1.965,3.75,0.0169,0.003
1.966,1.72,0.0169,0.006
1.967,0.94,0.0169,0.006
1.968,0.31,0.0179,0.008
1.969,-1.56,0.0200,0.007
1.97,-1.87,0.0200,0.005
1.971,-2.50,0.0200,0.003
1.972,-3.44,0.0200,0.000
1.973,-2.97,0.0200,-0.004
1.974,-2.66,0.0200,-0.006
1.975,-2.97,0.0200,-0.009
1.976,-0.63,0.0200,-0.012
1.977,1.09,0.0200,-0.010
1.978,1.41,0.0200,-0.010
1.979,3.28,0.0200,-0.007
1.98,4.22,0.0200,-0.003
1.981,2.66,0.0200,0.001
1.982,2.34,0.0200,0.002
1.983,2.81,0.0200,0.006
1.984,0.16,0.0203,0.008
1.985,-2.03,0.0209,0.006
1.986,-1.56,0.0209,0.004
1.987,-2.19,0.0209,0.003
1.988,-3.12,0.0209,-0.001
1.989,-3.12,0.0209,-0.003
1.99,-3.28,0.0209,-0.007
1.991,-3.12,0.0209,-0.010
1.992,-1.41,0.0209,-0.013
1.993,0.78,0.0209,-0.013
1.994,1.41,0.0209,-0.012
1.995,2.03,0.0209,-0.010
1.996,2.97,0.0209,-0.007
1.997,3.28,0.0209,-0.004
1.998,3.28,0.0209,-0.001
1.999,2.97,0.0209,0.003
2,1.72,0.0209,0.005
2.001,0.78,0.0209,0.006
2.002,0.31,0.0202,0.007
2.003,-1.87,0.0188,0.007
2.004,-2.97,0.0188,0.003
2.005,-2.66,0.0188,0.001
2.006,-3.44,0.0188,-0.003
2.007,-2.81,0.0188,-0.006
2.008,-1.41,0.0188,-0.008
2.009,-0.94,0.0188,-0.009
2.01,0.00,0.0188,-0.010
2.011,1.25,0.0188,-0.009
2.012,2.34,0.0188,-0.007
2.013,3.59,0.0188,-0.004
2.014,4.06,0.0188,-0.000
2.015,3.59,0.0188,0.004
2.016,2.50,0.0188,0.007
2.017,2.19,0.0188,0.009
2.018,0.16,0.0190,0.011
2.019,-2.03,0.0194,0.009
2.02,-1.56,0.0194,0.007
2.021,-2.19,0.0194,0.006
2.022,-2.66,0.0194,0.003
2.023,-2.03,0.0194,0.001
2.024,-2.03,0.0194,-0.001
2.025,-2.03,0.0194,-0.003
2.026,-1.09,0.0194,-0.005
2.027,0.78,0.0194,-0.006
2.028,1.72,0.0194,-0.004
2.029,2.81,0.0194,-0.002
2.03,2.97,0.0194,0.002
2.031,2.97,0.0194,0.004
2.032,4.22,0.0194,0.008
2.033,2.66,0.0194,0.012
2.034,0.78,0.0194,0.013
2.035,0.63,0.0194,0.014
2.036,-1.25,0.0189,0.014
2.037,-2.97,0.0178,0.011
2.038,-3.13,0.0178,0.008
2.039,-3.13,0.0178,0.005
2.04,-3.44,0.0178,0.002
2.041,-2.03,0.0178,-0.002
2.042,-0.78,0.0178,-0.002
2.043,-0.47,0.0178,-0.003
2.044,1.72,0.0178,-0.003
2.045,2.34,0.0178,0.000
2.046,2.66,0.0178,0.002
2.047,3.44,0.0178,0.005
2.048,2.66,0.0178,0.009
2.049,1.88,0.0178,0.011
2.05,1.56,0.0178,0.013
2.051,0.62,0.0173,0.014
2.052,-0.47,0.0162,0.014
2.053,-1.41,0.0162,0.013
2.054,-2.50,0.0162,0.011
2.055,-2.81,0.0162,0.008
2.056,-2.03,0.0162,0.005
2.057,-2.34,0.0162,0.004
2.058,-2.81,0.0162,0.001
2.059,-1.09,0.0162,-0.002
2.06,0.63,0.0162,-0.002
2.061,1.56,0.0162,-0.001
2.062,2.97,0.0162,0.002
2.063,3.44,0.0162,0.005
2.064,2.81,0.0162,0.008
2.065,2.97,0.0162,0.011
2.066,2.97,0.0162,0.014
2.067,1.25,0.0111,0.017
2.068,-0.47,0.0009,0.017
2.069,-0.16,0.0009,0.016
2.07,-1.09,0.0063,0.017
2.071,-3.12,0.0169,0.014
2.072,-2.66,0.0169,0.010
2.073,-2.66,0.0169,0.008
2.074,-2.97,0.0169,0.005
2.075,-2.03,0.0169,0.003
2.076,-0.63,0.0169,0.001
2.077,0.00,0.0169,0.001
2.078,1.56,0.0169,0.001
2.079,3.44,0.0169,0.004
2.08,3.28,0.0169,0.008
2.081,3.59,0.0169,0.011
2.082,3.28,0.0169,0.015
2.083,1.41,0.0169,0.018
2.084,1.41,0.0169,0.018
2.085,0.63,0.0176,0.020
2.086,-2.03,0.0191,0.019
2.087,-2.50,0.0191,0.016
2.088,-2.50,0.0191,0.014
2.089,-3.44,0.0191,0.011
2.09,-3.13,0.0191,0.007
2.091,-2.34,0.0191,0.005
2.092,-1.87,0.0191,0.003
2.093,-0.16,0.0191,0.001
2.094,1.41,0.0191,0.002
2.095,2.03,0.0191,0.004
2.096,2.81,0.0191,0.006
2.097,3.28,0.0191,0.010
2.098,2.50,0.0191,0.013
2.099,2.50,0.0191,0.015
2.1,2.66,0.0191,0.018
2.101,0.94,0.0195,0.020
2.102,-1.41,0.0203,0.020
2.103,-1.88,0.0203,0.017
2.104,-2.34,0.0203,0.016
2.105,-3.28,0.0203,0.013
2.106,-2.66,0.0203,0.009
2.107,-2.81,0.0203,0.007
2.108,-2.81,0.0203,0.004
2.109,-1.87,0.0203,0.002
2.11,-0.94,0.0203,0.000
2.111,1.25,0.0203,-0.000
2.112,3.28,0.0203,0.003
2.113,3.91,0.0203,0.006
2.114,3.91,0.0203,0.010
2.115,3.59,0.0203,0.014
2.116,2.34,0.0203,0.018
2.117,0.78,0.0203,0.019
2.118,0.94,0.0203,0.019
2.119,-0.47,0.0198,0.021
2.12,-2.34,0.0188,0.018
2.121,-2.34,0.0188,0.016
2.122,-3.12,0.0188,0.013
2.123,-3.75,0.0188,0.010
2.124,-2.66,0.0188,0.006
2.125,-1.56,0.0188,0.004
2.126,-1.25,0.0188,0.003
2.127,0.47,0.0188,0.002
2.128,2.50,0.0188,0.004
2.129,2.97,0.0188,0.007
2.13,2.97,0.0188,0.010
2.131,2.66,0.0188,0.013
2.132,2.19,0.0188,0.015
2.133,1.72,0.0188,0.017
2.134,0.94,0.0188,0.018
2.135,-0.62,0.0182,0.019
2.136,-1.25,0.0172,0.017
2.137,-1.25,0.0172,0.017
2.138,-3.12,0.0172,0.015
2.139,-3.59,0.0172,0.010
2.14,-2.19,0.0172,0.007
2.141,-2.03,0.0172,0.006
2.142,-2.03,0.0172,0.003
2.143,-0.16,0.0172,0.002
2.144,1.09,0.0172,0.003
2.145,1.87,0.0172,0.004
2.146,2.97,0.0172,0.007
2.147,3.12,0.0172,0.010
2.148,3.28,0.0172,0.013
2.149,2.66,0.0172,0.017
2.15,1.72,0.0172,0.018
2.151,0.31,0.0172,0.020
2.152,-0.31,0.0172,0.019
2.153,-0.94,0.0172,0.019
2.154,-2.50,0.0172,0.017
2.155,-2.50,0.0172,0.014
2.156,-2.97,0.0172,0.012
2.157,-3.28,0.0172,0.008
2.158,-1.56,0.0172,0.006
2.159,-0.63,0.0172,0.005
2.16,-0.63,0.0172,0.004
2.161,0.47,0.0172,0.004
2.162,2.50,0.0172,0.005
2.163,4.06,0.0172,0.009
2.164,4.06,0.0172,0.013
2.165,2.50,0.0172,0.017
2.166,2.03,0.0172,0.018
2.167,2.03,0.0172,0.021
2.168,0.31,0.0180,0.022
2.169,-1.72,0.0197,0.022
2.17,-2.97,0.0197,0.019
2.171,-2.97,0.0197,0.016
2.172,-3.28,0.0197,0.013
2.173,-3.12,0.0197,0.009
2.174,-2.34,0.0197,0.007
2.175,-1.56,0.0197,0.005
2.176,-0.94,0.0197,0.004
2.177,0.00,0.0197,0.003
2.178,0.94,0.0197,0.004
2.179,2.03,0.0197,0.005
2.18,3.59,0.0197,0.008
2.181,2.66,0.0197,0.012
2.182,2.19,0.0197,0.013
2.183,2.50,0.0197,0.016
2.184,0.78,0.0192,0.018
2.185,-1.25,0.0181,0.018
2.186,-1.09,0.0181,0.016
2.187,-1.56,0.0181,0.016
2.188,-3.44,0.0181,0.013
2.189,-2.66,0.0181,0.009
2.19,-2.97,0.0181,0.007
2.191,-3.28,0.0181,0.003
2.192,-1.41,0.0181,0.001
2.193,0.00,0.0181,0.000
2.194,0.78,0.0181,0.001
2.195,1.41,0.0181,0.002
2.196,2.50,0.0181,0.003
2.197,3.59,0.0181,0.007
2.198,3.28,0.0181,0.011
2.199,2.03,0.0181,0.013
2.2,1.09,0.0181,0.015
2.201,-0.31,0.0196,0.015
2.202,-1.56,0.0225,0.014
2.203,-2.81,0.0225,0.012
2.204,-3.59,0.0225,0.008
2.205,-3.13,0.0225,0.005
2.206,-3.59,0.0225,0.002
2.207,-4.06,0.0225,-0.002
2.208,-2.50,0.0225,-0.006
2.209,-0.63,0.0225,-0.007
2.21,0.78,0.0225,-0.007
2.211,1.56,0.0225,-0.006
2.212,1.25,0.0225,-0.004
2.213,2.97,0.0225,-0.003
2.214,4.53,0.0225,0.002
2.215,3.44,0.0225,0.006
2.216,2.34,0.0225,0.009
2.217,1.88,0.0225,0.011
2.218,-0.31,0.0216,0.013
2.219,-1.88,0.0197,0.010
2.22,-1.25,0.0197,0.009
2.221,-2.50,0.0197,0.007
2.222,-3.75,0.0197,0.004
2.223,-3.12,0.0197,0.000
2.224,-2.81,0.0197,-0.003
2.225,-2.34,0.0197,-0.006
2.226,-0.78,0.0197,-0.007
2.227,1.09,0.0197,-0.007
2.228,1.56,0.0197,-0.005
2.229,2.34,0.0197,-0.004
2.23,3.75,0.0197,-0.000
2.231,3.12,0.0197,0.003
2.232,2.34,0.0197,0.006
2.233,1.56,0.0197,0.008
2.234,0.16,0.0197,0.009
2.235,-0.62,0.0197,0.008
2.236,-1.41,0.0197,0.008
2.237,-2.50,0.0197,0.006
2.238,-2.66,0.0197,0.003
2.239,-2.81,0.0197,0.000
2.24,-3.28,0.0197,-0.003
2.241,-2.97,0.0197,-0.006
2.242,-2.03,0.0197,-0.009
2.243,-0.94,0.0197,-0.010
2.244,0.47,0.0197,-0.011
2.245,2.19,0.0197,-0.009
2.246,2.97,0.0197,-0.006
2.247,3.75,0.0197,-0.003
2.248,3.75,0.0197,0.001
2.249,2.34,0.0197,0.004
2.25,1.09,0.0197,0.006
2.251,0.16,0.0199,0.006
2.252,-0.94,0.0203,0.006
2.253,-1.72,0.0203,0.004
2.254,-2.19,0.0203,0.003
2.255,-3.59,0.0203,0.000
2.256,-3.44,0.0203,-0.004
2.257,-2.81,0.0203,-0.007
2.258,-2.66,0.0203,-0.010
2.259,-2.03,0.0203,-0.012
2.26,-0.63,0.0203,-0.014
2.261,1.56,0.0203,-0.013
2.262,2.19,0.0203,-0.011
2.263,2.97,0.0203,-0.009
2.264,3.12,0.0203,-0.005
2.265,2.66,0.0203,-0.003
2.266,2.81,0.0203,0.000
2.267,1.87,0.0203,0.003
2.268,0.78,0.0203,0.004
2.269,-0.31,0.0198,0.004
2.27,-1.72,0.0188,0.003
2.271,-2.81,0.0188,0.001
2.272,-2.66,0.0188,-0.002
2.273,-3.13,0.0188,-0.004
2.274,-2.50,0.0188,-0.008
2.275,-1.25,0.0188,-0.009
2.276,-1.09,0.0188,-0.011
2.277,0.16,0.0188,-0.012
2.278,2.03,0.0188,-0.011
2.279,2.97,0.0188,-0.007
2.28,2.81,0.0188,-0.005
2.281,3.28,0.0188,-0.002
2.282,3.28,0.0188,0.002
2.283,2.66,0.0188,0.005
2.284,1.41,0.0188,0.007
2.285,-0.47,0.0188,0.007
2.286,-2.19,0.0188,0.006
2.287,-1.88,0.0188,0.003
2.288,-2.34,0.0188,0.003
2.289,-4.06,0.0188,-0.002
2.29,-3.12,0.0188,-0.006
2.291,-1.88,0.0188,-0.008
2.292,-1.72,0.0188,-0.009
2.293,-0.62,0.0188,-0.011
2.294,1.25,0.0188,-0.011
2.295,1.25,0.0188,-0.009
2.296,2.03,0.0188,-0.008
2.297,3.59,0.0188,-0.005
2.298,3.44,0.0188,-0.001
2.299,2.66,0.0188,0.002
2.3,1.87,0.0188,0.004
2.301,0.78,0.0179,0.006
2.302,-0.78,0.0162,0.006
2.303,-1.09,0.0162,0.004
2.304,-1.87,0.0162,0.004
2.305,-3.12,0.0162,0.001
2.306,-2.50,0.0162,-0.003
2.307,-2.97,0.0162,-0.004
2.308,-2.50,0.0162,-0.008
2.309,-0.16,0.0162,-0.009
2.31,0.63,0.0162,-0.009
2.311,0.78,0.0162,-0.008
2.312,2.66,0.0162,-0.007
2.313,4.06,0.0162,-0.003
2.314,2.66,0.0162,0.001
2.315,2.97,0.0162,0.003
2.316,3.12,0.0162,0.007
2.317,0.94,0.0166,0.009
2.318,-0.16,0.0172,0.009
2.319,-0.47,0.0172,0.008
2.32,-1.88,0.0172,0.008
2.321,-3.12,0.0172,0.005
2.322,-2.66,0.0172,0.002
2.323,-2.19,0.0172,-0.001
2.324,-2.50,0.0172,-0.003
2.325,-2.03,0.0172,-0.006
2.326,-1.41,0.0172,-0.007
2.327,-0.16,0.0172,-0.008
2.328,1.88,0.0172,-0.007
2.329,2.81,0.0172,-0.005
2.33,3.44,0.0172,-0.002
2.331,3.59,0.0172,0.002
2.332,2.50,0.0172,0.006
2.333,1.56,0.0172,0.007
2.334,1.72,0.0172,0.009
2.335,0.47,0.0174,0.011
2.336,-1.41,0.0178,0.010
2.337,-1.88,0.0178,0.008
2.338,-2.34,0.0178,0.006
2.339,-3.44,0.0178,0.003
2.34,-2.97,0.0178,-0.001
2.341,-2.50,0.0178,-0.003
2.342,-1.41,0.0178,-0.006
2.343,0.16,0.0178,-0.006
2.344,0.31,0.0178,-0.006
2.345,1.56,0.0178,-0.005
2.346,3.12,0.0178,-0.003
2.347,3.44,0.0178,0.001
2.348,3.59,0.0178,0.004
2.349,3.75,0.0178,0.008
2.35,2.97,0.0178,0.012
2.351,0.16,0.0182,0.014
2.352,-1.41,0.0191,0.012
2.353,-0.78,0.0191,0.012
2.354,-2.34,0.0191,0.011
2.355,-2.66,0.0191,0.007
2.356,-2.50,0.0191,0.005
2.357,-3.12,0.0191,0.002
2.358,-2.03,0.0191,-0.001
2.359,-1.41,0.0191,-0.002
2.36,-0.63,0.0191,-0.004
2.361,1.25,0.0191,-0.003
2.362,2.81,0.0191,-0.001
2.363,3.28,0.0191,0.002
2.364,3.44,0.0191,0.005
2.365,4.06,0.0191,0.009
2.366,3.13,0.0191,0.013
2.367,1.41,0.0191,0.015
2.368,-0.16,0.0189,0.016
2.369,-1.25,0.0184,0.015
2.37,-2.03,0.0184,0.014
2.371,-3.12,0.0184,0.011
2.372,-2.97,0.0184,0.007
2.373,-2.50,0.0184,0.005
2.374,-2.03,0.0184,0.003
2.375,-2.19,0.0184,0.001
2.376,-1.56,0.0184,-0.002
2.377,0.63,0.0184,-0.002
2.378,1.56,0.0184,-0.001
2.379,2.81,0.0184,0.001
2.38,4.22,0.0184,0.005
2.381,3.28,0.0184,0.009
2.382,2.19,0.0184,0.012
2.383,2.66,0.0184,0.014
2.384,1.56,0.0187,0.017
2.385,-0.78,0.0194,0.017
2.386,-1.25,0.0194,0.015
2.387,-2.19,0.0194,0.014
2.388,-3.59,0.0194,0.011
2.389,-2.66,0.0194,0.007
2.39,-2.50,0.0194,0.006
2.391,-3.44,0.0194,0.002
2.392,-1.87,0.0194,-0.001
2.393,-0.63,0.0194,-0.002
2.394,0.31,0.0194,-0.003
2.395,2.34,0.0194,-0.001
2.396,3.59,0.0194,0.002
2.397,3.13,0.0194,0.006
2.398,3.12,0.0194,0.008
2.399,2.97,0.0194,0.013
2.4,1.56,0.0194,0.014
2.401,0.94,0.0194,0.016
2.402,0.00,0.0191,0.016
2.403,-1.56,0.0184,0.016
2.404,-2.81,0.0184,0.013
2.405,-2.66,0.0184,0.010
2.406,-2.50,0.0184,0.008
2.407,-1.88,0.0184,0.005
2.408,-1.56,0.0184,0.004
2.409,-1.87,0.0184,0.002
2.41,-0.16,0.0184,0.000
2.411,1.41,0.0184,0.002
2.412,2.34,0.0184,0.003
2.413,3.44,0.0184,0.006
2.414,3.59,0.0184,0.010
2.415,3.12,0.0184,0.013
2.416,2.50,0.0184,0.016
2.417,1.25,0.0184,0.018
2.418,0.31,0.0184,0.019
2.419,-0.63,0.0184,0.019
2.42,-0.78,0.0184,0.018
2.421,-2.03,0.0184,0.018
2.422,-4.84,0.0184,0.013
2.423,-3.28,0.0184,0.008
2.424,-1.72,0.0184,0.007
2.425,-2.66,0.0184,0.004
2.426,-1.87,0.0184,0.002
2.427,-0.16,0.0184,0.001
2.428,0.94,0.0184,0.001
2.429,2.50,0.0184,0.003
2.43,4.38,0.0184,0.006
2.431,3.75,0.0184,0.011
2.432,2.81,0.0184,0.014
2.433,2.03,0.0184,0.017
2.434,0.78,0.0184,0.018
2.435,0.16,0.0189,0.018
2.436,-0.78,0.0197,0.018
2.437,-2.81,0.0197,0.017
2.438,-3.75,0.0197,0.013
2.439,-2.97,0.0197,0.009
2.44,-2.97,0.0197,0.007
2.441,-2.34,0.0197,0.003
2.442,-0.94,0.0197,0.002
2.443,-0.78,0.0197,0.002
2.444,0.16,0.0197,0.000
2.445,1.87,0.0197,0.002
2.446,2.97,0.0197,0.004
2.447,3.75,0.0197,0.008
2.448,4.06,0.0197,0.012
2.449,3.75,0.0197,0.016
2.45,2.03,0.0197,0.019
2.451,0.94,0.0197,0.020
2.452,-0.78,0.0193,0.021
2.453,-2.50,0.0184,0.018
2.454,-2.03,0.0184,0.016
2.455,-2.34,0.0184,0.014
2.456,-3.13,0.0184,0.011
2.457,-2.81,0.0184,0.008
2.458,-2.19,0.0184,0.006
2.459,-1.56,0.0184,0.004
2.46,-0.31,0.0184,0.003
2.461,1.88,0.0184,0.003
2.462,2.81,0.0184,0.006
2.463,2.81,0.0184,0.009
2.464,2.50,0.0184,0.012
2.465,2.19,0.0184,0.014
2.466,2.81,0.0184,0.016
2.467,1.41,0.0180,0.019
2.468,-0.94,0.0172,0.019
2.469,-1.41,0.0172,0.018
2.47,-1.41,0.0172,0.016
2.471,-2.50,0.0172,0.015
2.472,-2.81,0.0172,0.011
2.473,-1.88,0.0172,0.009
2.474,-2.66,0.0172,0.007
2.475,-2.50,0.0172,0.004
2.476,-0.78,0.0172,0.003
2.477,0.00,0.0172,0.002
2.478,1.87,0.0172,0.003
2.479,2.66,0.0172,0.006
2.48,2.19,0.0172,0.008
2.481,3.28,0.0172,0.010
2.482,3.59,0.0172,0.014
2.483,2.03,0.0172,0.018
2.484,1.25,0.0172,0.018
2.485,0.78,0.0185,0.020
2.486,-1.56,0.0213,0.020
2.487,-2.19,0.0213,0.017
2.488,-2.34,0.0213,0.016
2.489,-4.06,0.0213,0.012
2.49,-4.37,0.0213,0.007
2.491,-3.28,0.0213,0.003
2.492,-2.34,0.0213,0.001
2.493,-0.78,0.0213,-0.001
2.494,1.72,0.0213,-0.001
2.495,2.50,0.0213,0.002
2.496,2.50,0.0213,0.004
2.497,2.66,0.0213,0.007
2.498,2.34,0.0213,0.010
2.499,1.88,0.0213,0.012
2.5,1.88,0.0213,0.013
2.501,1.25,0.0213,0.016
2.502,-1.41,0.0207,0.016
2.503,-2.81,0.0197,0.013
2.504,-2.19,0.0197,0.010
2.505,-3.28,0.0197,0.008
2.506,-3.59,0.0197,0.004
2.507,-2.34,0.0197,0.001
2.508,-2.50,0.0197,-0.001
2.509,-1.41,0.0197,-0.004
2.51,0.16,0.0197,-0.004
2.511,0.63,0.0197,-0.003
2.512,1.87,0.0197,-0.003
2.513,3.59,0.0197,0.000
2.514,3.59,0.0197,0.005
2.515,3.12,0.0197,0.007
2.516,3.12,0.0197,0.011
2.517,1.25,0.0197,0.014
2.518,0.16,0.0197,0.013
2.519,-0.78,0.0191,0.014
2.52,-2.34,0.0178,0.012
2.521,-2.97,0.0178,0.009
2.522,-3.13,0.0178,0.006
2.523,-3.44,0.0178,0.003
2.524,-2.97,0.0178,-0.001
2.525,-0.94,0.0178,-0.003
2.526,-0.47,0.0178,-0.003
2.527,0.16,0.0178,-0.004
2.528,1.41,0.0178,-0.003
2.529,2.34,0.0178,-0.001
2.53,2.97,0.0178,0.002
2.531,3.13,0.0178,0.005
2.532,3.59,0.0178,0.008
2.533,2.19,0.0178,0.012
2.534,0.47,0.0178,0.013
2.535,-0.16,0.0178,0.013
2.536,-1.87,0.0178,0.013
2.537,-2.66,0.0178,0.009
2.538,-2.34,0.0178,0.007
2.539,-2.66,0.0178,0.005
2.54,-2.66,0.0178,0.002
2.541,-2.66,0.0178,-0.001
2.542,-1.87,0.0178,-0.003
2.543,-0.31,0.0178,-0.004
2.544,1.09,0.0178,-0.004
2.545,1.87,0.0178,-0.002
2.546,2.97,0.0178,-0.000
2.547,4.06,0.0178,0.004
2.548,3.12,0.0178,0.008
2.549,1.88,0.0178,0.010
2.55,1.72,0.0178,0.012
2.551,1.56,0.0178,0.013
2.552,0.00,0.0184,0.015
2.553,-1.88,0.0197,0.013
2.554,-2.66,0.0197,0.011
2.555,-3.28,0.0197,0.008
2.556,-3.44,0.0197,0.004
2.557,-3.12,0.0197,0.001
2.558,-2.19,0.0197,-0.002
2.559,-1.09,0.0197,-0.003
2.56,-0.94,0.0197,-0.004
2.561,0.47,0.0197,-0.005
2.562,2.19,0.0197,-0.003
2.563,2.66,0.0197,-0.001
2.564,2.97,0.0197,0.002
2.565,3.13,0.0197,0.005
2.566,1.87,0.0197,0.008
2.567,1.25,0.0197,0.009
2.568,0.63,0.0197,0.011
2.569,-0.94,0.0197,0.010
2.57,-2.50,0.0197,0.009
2.571,-3.28,0.0197,0.005
2.572,-2.66,0.0197,0.003
2.573,-3.12,0.0197,0.000
2.574,-2.97,0.0197,-0.004
2.575,-2.03,0.0197,-0.006
2.576,-1.41,0.0197,-0.008
2.577,0.31,0.0197,-0.009
2.578,1.88,0.0197,-0.007
2.579,2.19,0.0197,-0.005
2.58,2.97,0.0197,-0.003
2.581,2.97,0.0197,0.001
2.582,2.97,0.0197,0.003
2.583,2.97,0.0197,0.007
2.584,1.72,0.0197,0.009
2.585,-0.31,0.0195,0.010
2.586,-1.56,0.0191,0.008
2.587,-1.56,0.0191,0.007
2.588,-2.03,0.0191,0.005
2.589,-3.12,0.0191,0.003
2.59,-3.44,0.0191,-0.001
2.591,-2.66,0.0191,-0.004
2.592,-1.72,0.0191,-0.006
2.593,-1.25,0.0191,-0.007
2.594,-0.47,0.0191,-0.009
2.595,1.56,0.0191,-0.008
2.596,2.97,0.0191,-0.006
2.597,3.28,0.0191,-0.002
2.598,2.97,0.0191,0.001
2.599,3.44,0.0191,0.004
2.6,2.34,0.0191,0.008
2.601,0.47,0.0191,0.008
2.602,-0.31,0.0183,0.009
2.603,-1.88,0.0169,0.008
2.604,-2.97,0.0169,0.005
2.605,-2.81,0.0169,0.002
2.606,-2.81,0.0169,-0.001
2.607,-2.97,0.0169,-0.004
2.608,-1.56,0.0169,-0.007
2.609,-0.78,0.0169,-0.007
2.61,-0.62,0.0169,-0.008
2.611,1.09,0.0169,-0.008
2.612,2.19,0.0169,-0.006
2.613,2.81,0.0169,-0.004
2.614,4.06,0.0169,-0.000
2.615,3.28,0.0169,0.004
2.616,2.03,0.0169,0.006
2.617,1.72,0.0169,0.008
2.618,0.47,0.0172,0.010
2.619,-1.25,0.0178,0.009
2.62,-1.56,0.0178,0.007
2.621,-2.19,0.0178,0.006
2.622,-3.44,0.0178,0.003
2.623,-3.12,0.0178,-0.001
2.624,-1.87,0.0178,-0.003
2.625,-2.34,0.0178,-0.004
2.626,-1.72,0.0178,-0.008
2.627,0.94,0.0178,-0.008
2.628,1.25,0.0178,-0.006
2.629,2.66,0.0178,-0.005
2.63,3.59,0.0178,-0.001
2.631,2.03,0.0178,0.002
2.632,2.34,0.0178,0.003
2.633,2.97,0.0178,0.007
2.634,1.41,0.0178,0.009
2.635,0.16,0.0183,0.009
2.636,0.00,0.0194,0.009
2.637,-2.19,0.0194,0.009
2.638,-4.22,0.0194,0.005
2.639,-3.44,0.0194,0.001
2.64,-3.28,0.0194,-0.002
2.641,-2.81,0.0194,-0.006
2.642,-1.09,0.0194,-0.007
2.643,-0.16,0.0194,-0.008
2.644,0.94,0.0194,-0.008
2.645,2.66,0.0194,-0.006
2.646,3.28,0.0194,-0.003
2.647,2.97,0.0194,0.001
2.648,3.59,0.0194,0.003
2.649,2.97,0.0194,0.008
2.65,1.88,0.0194,0.009
2.651,1.56,0.0194,0.012
2.652,-0.47,0.0198,0.013
2.653,-2.66,0.0206,0.011
2.654,-2.34,0.0206,0.007
2.655,-2.97,0.0206,0.006
2.656,-3.75,0.0206,0.001
2.657,-2.34,0.0206,-0.002
2.658,-1.72,0.0206,-0.003
2.659,-2.03,0.0206,-0.005
2.66,-0.31,0.0206,-0.007
2.661,1.87,0.0206,-0.006
2.662,2.03,0.0206,-0.004
2.663,3.28,0.0206,-0.002
2.664,3.91,0.0206,0.003
2.665,3.28,0.0206,0.006
2.666,3.44,0.0206,0.009
2.667,2.97,0.0206,0.013
2.668,0.78,0.0194,0.015
2.669,-1.41,0.0169,0.015
2.67,-1.72,0.0169,0.013
2.671,-2.34,0.0169,0.011
2.672,-2.97,0.0169,0.008
2.673,-1.88,0.0169,0.005
2.674,-2.34,0.0169,0.004
2.675,-2.19,0.0169,0.001
2.676,-0.94,0.0169,-0.000
2.677,-0.16,0.0169,-0.001
2.678,1.41,0.0169,-0.001
2.679,2.66,0.0169,0.002
2.68,3.28,0.0169,0.005
2.681,2.66,0.0169,0.008
2.682,2.66,0.0169,0.010
2.683,2.81,0.0169,0.013
2.684,1.72,0.0169,0.016
2.685,0.47,0.0172,0.017
2.686,-1.09,0.0178,0.017
2.687,-2.19,0.0178,0.015
2.688,-2.19,0.0178,0.012
2.689,-2.66,0.0178,0.010
2.69,-3.28,0.0178,0.007
2.691,-2.50,0.0178,0.004
2.692,-2.34,0.0178,0.002
2.693,-0.94,0.0178,-0.001
2.694,1.72,0.0178,0.000
2.695,2.03,0.0178,0.003
2.696,2.66,0.0178,0.004
2.697,3.75,0.0178,0.008
2.698,3.28,0.0178,0.012
2.699,2.66,0.0178,0.014
2.7,2.03,0.0178,0.017
2.701,0.78,0.0182,0.018
2.702,-0.94,0.0191,0.018
2.703,-2.03,0.0191,0.017
2.704,-2.66,0.0191,0.014
2.705,-3.28,0.0191,0.011
2.706,-3.13,0.0191,0.008
2.707,-2.81,0.0191,0.005
2.708,-2.81,0.0191,0.002
2.709,-0.47,0.0191,-0.001
2.71,0.94,0.0191,0.001
2.711,0.94,0.0191,0.001
2.712,2.50,0.0191,0.003
2.713,2.97,0.0191,0.006
2.714,2.97,0.0191,0.009
2.715,3.59,0.0191,0.012
2.716,2.81,0.0191,0.016
2.717,1.88,0.0191,0.018
2.718,0.78,0.0182,0.020
2.719,-0.62,0.0166,0.019
2.72,-1.88,0.0166,0.019
2.721,-3.59,0.0166,0.016
2.722,-2.50,0.0166,0.012
2.723,-2.34,0.0166,0.011
2.724,-3.12,0.0166,0.007
2.725,-1.41,0.0166,0.004
2.726,0.00,0.0166,0.004
2.727,0.00,0.0166,0.004
2.728,1.41,0.0166,0.004
2.729,2.50,0.0166,0.007
2.73,3.28,0.0166,0.009
2.731,3.91,0.0166,0.014
2.732,2.81,0.0166,0.017
2.733,1.88,0.0166,0.019
2.734,1.41,0.0166,0.021
2.735,0.16,0.0168,0.022
2.736,-1.72,0.0172,0.021
2.737,-1.72,0.0172,0.019
2.738,-2.50,0.0172,0.018
2.739,-3.44,0.0172,0.014
2.74,-2.34,0.0172,0.011
2.741,-1.88,0.0172,0.009
2.742,-1.72,0.0172,0.007
2.743,-0.94,0.0172,0.006
2.744,1.25,0.0172,0.005
2.745,2.66,0.0172,0.008
2.746,2.66,0.0172,0.010
2.747,3.28,0.0172,0.013
2.748,3.12,0.0172,0.017
2.749,2.50,0.0172,0.020
2.75,2.03,0.0172,0.022
2.751,0.78,0.0180,0.024
2.752,-0.78,0.0197,0.023
2.753,-1.25,0.0197,0.022
2.754,-2.81,0.0197,0.021
2.755,-3.91,0.0197,0.017
2.756,-2.66,0.0197,0.013
2.757,-2.81,0.0197,0.011
2.758,-3.44,0.0197,0.007
2.759,-1.72,0.0197,0.004
2.76,0.00,0.0197,0.004
2.761,1.41,0.0197,0.004
2.762,2.50,0.0197,0.007
2.763,2.50,0.0197,0.009
2.764,2.81,0.0197,0.012
2.765,3.28,0.0197,0.015
2.766,3.28,0.0197,0.018
2.767,1.56,0.0197,0.022
2.768,0.47,0.0197,0.022
2.769,-0.16,0.0193,0.022
2.77,-2.50,0.0184,0.021
2.771,-3.44,0.0184,0.018
2.772,-3.28,0.0184,0.014
2.773,-3.75,0.0184,0.011
2.774,-2.81,0.0184,0.007
2.775,-1.09,0.0184,0.005
2.776,-0.63,0.0184,0.005
2.777,0.16,0.0184,0.004
2.778,2.81,0.0184,0.005
2.779,3.13,0.0184,0.010
2.78,2.34,0.0184,0.011
2.781,3.12,0.0184,0.014
2.782,2.19,0.0184,0.018
2.783,1.56,0.0184,0.019
2.784,1.72,0.0184,0.021
2.785,0.00,0.0183,0.022
2.786,-1.09,0.0181,0.021
2.787,-1.72,0.0181,0.020
2.788,-3.44,0.0181,0.017
2.789,-3.59,0.0181,0.013
2.79,-2.50,0.0181,0.010
2.791,-2.34,0.0181,0.008
2.792,-1.72,0.0181,0.005
2.793,0.16,0.0181,0.005
2.794,1.25,0.0181,0.006
2.795,1.41,0.0181,0.007
2.796,2.50,0.0181,0.008
2.797,3.28,0.0181,0.012
2.798,3.28,0.0181,0.015
2.799,3.44,0.0181,0.019
2.8,2.03,0.0181,0.022
2.801,0.63,0.0181,0.023
2.802,-0.47,0.0184,0.023
2.803,-1.88,0.0191,0.022
2.804,-2.66,0.0191,0.019
2.805,-2.66,0.0191,0.017
2.806,-2.81,0.0191,0.014
2.807,-3.12,0.0191,0.011
2.808,-2.97,0.0191,0.008
2.809,-1.41,0.0191,0.005
2.81,-0.47,0.0191,0.005
2.811,1.09,0.0191,0.004
2.812,2.97,0.0191,0.007
2.813,2.81,0.0191,0.010
2.814,2.97,0.0191,0.013
2.815,2.81,0.0191,0.016
2.816,1.56,0.0191,0.018
2.817,1.72,0.0191,0.019
2.818,1.25,0.0191,0.022
2.819,-0.62,0.0191,0.022
2.82,-2.03,0.0191,0.021
2.821,-2.66,0.0191,0.018
2.822,-3.59,0.0191,0.015
2.823,-4.06,0.0191,0.010
2.824,-2.81,0.0191,0.007
2.825,-1.72,0.0191,0.005
2.826,-0.94,0.0191,0.004
2.827,0.00,0.0191,0.003
2.828,1.41,0.0191,0.004
2.829,2.66,0.0191,0.006
2.83,3.75,0.0191,0.009
2.831,2.81,0.0191,0.013
2.832,2.19,0.0191,0.015
2.833,1.72,0.0191,0.018
2.834,0.47,0.0191,0.018
2.835,-0.16,0.0190,0.018
2.836,-0.94,0.0187,0.018
2.837,-2.03,0.0187,0.017
2.838,-3.44,0.0187,0.014
2.839,-3.12,0.0187,0.010
2.84,-2.97,0.0187,0.007
2.841,-3.12,0.0187,0.004
2.842,-1.87,0.0187,0.001
2.843,-0.78,0.0187,0.000
2.844,1.56,0.0187,-0.000
2.845,3.12,0.0187,0.003
2.846,2.50,0.0187,0.006
2.847,2.34,0.0187,0.008
2.848,2.97,0.0187,0.011
2.849,2.81,0.0187,0.014
2.85,1.41,0.0187,0.016
2.851,0.94,0.0187,0.017
2.852,0.47,0.0186,0.018
2.853,-1.25,0.0184,0.018
2.854,-2.50,0.0184,0.016
2.855,-3.12,0.0184,0.013
2.856,-3.91,0.0184,0.009
2.857,-2.97,0.0184,0.005
2.858,-1.72,0.0184,0.003
2.859,-1.41,0.0184,0.002
2.86,0.00,0.0184,0.001
2.861,1.25,0.0184,0.002
2.862,2.34,0.0184,0.003
2.863,3.59,0.0184,0.006
2.864,3.75,0.0184,0.010
2.865,3.28,0.0184,0.014
2.866,2.66,0.0184,0.017
2.867,1.72,0.0184,0.019
2.868,0.16,0.0189,0.020
2.869,-1.56,0.0197,0.019
2.87,-1.88,0.0197,0.017
2.871,-2.66,0.0197,0.016
2.872,-4.06,0.0197,0.012
2.873,-3.59,0.0197,0.007
2.874,-2.97,0.0197,0.005
2.875,-1.72,0.0197,0.002
2.876,-0.47,0.0197,0.001
2.877,0.00,0.0197,0.001
2.878,1.56,0.0197,0.001
2.879,3.28,0.0197,0.004
2.88,3.28,0.0197,0.008
2.881,2.34,0.0197,0.010
2.882,2.66,0.0197,0.013
2.883,2.81,0.0197,0.016
2.884,1.41,0.0197,0.018
2.885,-0.47,0.0189,0.018
2.886,-0.78,0.0172,0.017
2.887,-1.72,0.0172,0.017
2.888,-2.97,0.0172,0.014
2.889,-2.81,0.0172,0.011
2.89,-2.81,0.0172,0.008
2.891,-2.66,0.0172,0.005
2.892,-1.87,0.0172,0.003
2.893,-0.16,0.0172,0.002
2.894,0.94,0.0172,0.003
2.895,1.56,0.0172,0.003
2.896,2.50,0.0172,0.006
2.897,3.44,0.0172,0.008
2.898,3.44,0.0172,0.013
2.899,2.34,0.0172,0.015
2.9,1.72,0.0172,0.017
2.901,1.41,0.0172,0.019
2.902,-0.94,0.0180,0.020
2.903,-2.03,0.0197,0.017
2.904,-1.88,0.0197,0.016
2.905,-2.81,0.0197,0.013
2.906,-2.97,0.0197,0.010
2.907,-3.28,0.0197,0.007
2.908,-2.66,0.0197,0.004
2.909,-1.72,0.0197,0.002
2.91,-0.16,0.0197,0.000
2.911,1.09,0.0197,0.002
2.912,1.87,0.0197,0.003
2.913,3.12,0.0197,0.005
2.914,3.44,0.0197,0.009
2.915,3.28,0.0197,0.012
2.916,2.81,0.0197,0.015
2.917,2.03,0.0197,0.018
2.918,-0.16,0.0197,0.019
2.919,-1.41,0.0197,0.018
2.92,-1.56,0.0197,0.017
2.921,-2.66,0.0197,0.014
2.922,-3.13,0.0197,0.011
2.923,-2.66,0.0197,0.008
2.924,-2.66,0.0197,0.006
2.925,-2.19,0.0197,0.003
2.926,-1.09,0.0197,0.002
2.927,-0.94,0.0197,0.001
2.928,1.87,0.0197,-0.000
2.929,4.06,0.0197,0.004
2.93,2.97,0.0197,0.008
2.931,3.28,0.0197,0.010
2.932,3.75,0.0197,0.014
2.933,1.72,0.0197,0.018
2.934,0.16,0.0197,0.018
2.935,-0.31,0.0193,0.018
2.936,-1.41,0.0184,0.017
2.937,-1.56,0.0184,0.015
2.938,-2.81,0.0184,0.014
2.939,-4.69,0.0184,0.010
2.94,-3.75,0.0184,0.005
2.941,-1.41,0.0184,0.002
2.942,-1.25,0.0184,0.002
2.943,-0.94,0.0184,-0.000
2.944,1.25,0.0184,0.000
2.945,1.72,0.0184,0.002
2.946,2.34,0.0184,0.003
2.947,3.91,0.0184,0.007
2.948,3.59,0.0184,0.011
2.949,2.34,0.0184,0.014
2.95,1.88,0.0184,0.016
2.951,0.63,0.0181,0.018
2.952,-0.94,0.0175,0.017
2.953,-1.72,0.0175,0.016
2.954,-2.50,0.0175,0.014
2.955,-3.28,0.0175,0.011
2.956,-2.34,0.0175,0.007
2.957,-1.72,0.0175,0.006
2.958,-2.97,0.0175,0.004
2.959,-1.25,0.0175,0.000
2.96,0.78,0.0175,0.001
2.961,1.09,0.0175,0.002
2.962,2.19,0.0175,0.003
2.963,2.81,0.0175,0.006
2.964,2.81,0.0175,0.009
2.965,3.13,0.0175,0.012
2.966,2.50,0.0175,0.015
2.967,0.78,0.0175,0.017
2.968,0.47,0.0175,0.017
2.969,0.16,0.0174,0.018
2.97,-1.72,0.0172,0.017
2.971,-2.66,0.0172,0.014
2.972,-2.66,0.0172,0.012
2.973,-3.28,0.0172,0.009
2.974,-3.28,0.0172,0.005
2.975,-1.56,0.0172,0.003
2.976,-0.31,0.0172,0.002
2.977,0.47,0.0172,0.002
2.978,2.19,0.0172,0.003
2.979,2.66,0.0172,0.006
2.98,3.59,0.0172,0.008
2.981,4.22,0.0172,0.013
2.982,2.81,0.0172,0.017
2.983,2.19,0.0172,0.019
2.984,0.94,0.0176,0.021
2.985,-0.78,0.0184,0.021
2.986,-1.09,0.0184,0.020
2.987,-2.34,0.0184,0.019
2.988,-3.91,0.0184,0.015
2.989,-3.59,0.0184,0.011
2.99,-2.34,0.0184,0.008
2.991,-2.19,0.0184,0.006
2.992,-1.72,0.0184,0.003
2.993,0.16,0.0184,0.003
2.994,0.78,0.0184,0.004
2.995,1.56,0.0184,0.004
2.996,3.28,0.0184,0.007
2.997,3.28,0.0184,0.011
2.998,2.81,0.0184,0.013
2.999,3.12,0.0184,0.017
3,2.34,0.0184,0.020
3.001,0.78,0.0184,0.021
3.002,-0.16,0.0184,0.021
3.003,-1.25,0.0184,0.021
3.004,-3.28,0.0184,0.019
3.005,-3.44,0.0184,0.014
3.006,-2.66,0.0184,0.012
3.007,-3.28,0.0184,0.009
3.008,-2.34,0.0184,0.005
3.009,-1.25,0.0184,0.004
3.01,-0.78,0.0184,0.003
3.011,0.78,0.0184,0.003
3.012,2.34,0.0184,0.004
3.013,3.59,0.0184,0.007
3.014,3.59,0.0184,0.012
3.015,3.12,0.0184,0.015
3.016,2.03,0.0184,0.018
3.017,1.41,0.0184,0.019
3.018,1.09,0.0184,0.021
3.019,-0.78,0.0182,0.021
3.02,-2.50,0.0178,0.019
3.021,-2.66,0.0178,0.016
3.022,-3.59,0.0178,0.014
3.023,-3.28,0.0178,0.009
3.024,-1.41,0.0178,0.007
3.025,-1.88,0.0178,0.006
3.026,-1.41,0.0178,0.003
3.027,0.47,0.0178,0.003
3.028,1.87,0.0178,0.004
3.029,2.34,0.0178,0.007
3.03,3.28,0.0178,0.009
3.031,3.59,0.0178,0.013
3.032,2.97,0.0178,0.016
3.033,2.97,0.0178,0.019
3.034,1.41,0.0178,0.022
3.035,-0.31,0.0178,0.022
3.036,-0.62,0.0178,0.022
3.037,-1.56,0.0178,0.021
3.038,-2.97,0.0178,0.018
3.039,-2.81,0.0178,0.015
3.04,-2.97,0.0178,0.013
3.041,-3.75,0.0178,0.009
3.042,-2.34,0.0178,0.005
3.043,0.16,0.0178,0.004
3.044,0.94,0.0178,0.006
3.045,2.03,0.0178,0.006
3.046,2.97,0.0178,0.010
3.047,2.50,0.0178,0.012
3.048,2.81,0.0178,0.015
3.049,2.97,0.0178,0.018
3.05,2.03,0.0178,0.021
3.051,1.87,0.0178,0.022
3.052,0.94,0.0181,0.024
3.053,-1.72,0.0187,0.024
3.054,-2.66,0.0187,0.021
3.055,-2.97,0.0187,0.018
3.056,-3.75,0.0187,0.015
3.057,-3.44,0.0187,0.011
3.058,-2.03,0.0187,0.008
3.059,-1.25,0.0187,0.007
3.06,-0.47,0.0187,0.006
3.061,1.41,0.0187,0.006
3.062,2.50,0.0187,0.008
3.063,3.28,0.0187,0.011
3.064,4.22,0.0187,0.015
3.065,3.59,0.0187,0.019
3.066,2.50,0.0187,0.022
3.067,1.72,0.0187,0.024
3.068,0.31,0.0185,0.026
3.069,-1.09,0.0181,0.025
3.07,-1.56,0.0181,0.023
3.071,-2.34,0.0181,0.022
3.072,-2.97,0.0181,0.019
3.073,-3.13,0.0181,0.016
3.074,-3.12,0.0181,0.013
3.075,-2.34,0.0181,0.010
3.076,-1.09,0.0181,0.008
3.077,0.78,0.0181,0.007
3.078,1.41,0.0181,0.009
3.079,2.19,0.0181,0.010
3.08,3.44,0.0181,0.014
3.081,2.81,0.0181,0.017
3.082,2.81,0.0181,0.019
3.083,2.81,0.0181,0.023
3.084,1.72,0.0181,0.025
3.085,-0.16,0.0180,0.026
3.086,-1.56,0.0178,0.025
3.087,-2.50,0.0178,0.023
3.088,-3.75,0.0178,0.020
3.089,-2.81,0.0178,0.016
3.09,-2.34,0.0178,0.014
3.091,-2.50,0.0178,0.011
3.092,-0.94,0.0178,0.009
3.093,-0.31,0.0178,0.009
3.094,0.47,0.0178,0.008
3.095,2.03,0.0178,0.010
3.096,3.28,0.0178,0.013
3.097,3.75,0.0178,0.017
3.098,3.28,0.0178,0.020
3.099,2.19,0.0178,0.023
3.1,1.25,0.0178,0.024
3.101,1.25,0.0178,0.026
3.102,0.16,0.0181,0.027
3.103,-1.88,0.0188,0.026
3.104,-3.12,0.0188,0.023
3.105,-3.44,0.0188,0.020
3.106,-3.44,0.0188,0.016
3.107,-2.19,0.0188,0.013
3.108,-1.56,0.0188,0.012
3.109,-1.88,0.0188,0.010
3.11,-0.16,0.0188,0.008
3.111,1.41,0.0188,0.009
3.112,2.19,0.0188,0.011
3.113,3.28,0.0188,0.014
3.114,3.75,0.0188,0.018
3.115,3.28,0.0188,0.021
3.116,2.19,0.0188,0.024
3.117,1.25,0.0188,0.026
3.118,0.31,0.0174,0.027
3.119,-0.78,0.0147,0.026
3.12,-1.41,0.0147,0.025
3.121,-2.81,0.0147,0.023
3.122,-3.28,0.0147,0.019
3.123,-2.03,0.0147,0.017
3.124,-2.50,0.0147,0.015
3.125,-1.72,0.0147,0.012
3.126,0.16,0.0147,0.012
3.127,0.47,0.0147,0.012
3.128,1.56,0.0147,0.013
3.129,2.97,0.0147,0.015
3.13,3.12,0.0147,0.019
3.131,2.97,0.0147,0.022
3.132,3.44,0.0147,0.025
3.133,1.72,0.0167,0.028
3.134,0.00,0.0206,0.028
3.135,-0.47,0.0206,0.028
3.136,-1.88,0.0206,0.027
3.137,-2.19,0.0206,0.025
3.138,-2.50,0.0206,0.023
3.139,-3.44,0.0206,0.020
3.14,-3.59,0.0206,0.016
3.141,-3.12,0.0206,0.013
3.142,-2.34,0.0206,0.010
3.143,-0.62,0.0206,0.008
3.144,1.09,0.0206,0.008
3.145,1.72,0.0206,0.010
3.146,2.50,0.0206,0.012
3.147,3.44,0.0206,0.015
3.148,3.44,0.0206,0.019
3.149,2.97,0.0206,0.022
3.15,2.50,0.0206,0.025
3.151,1.09,0.0200,0.027
3.152,-0.63,0.0188,0.027
3.153,-1.56,0.0188,0.026
3.154,-2.66,0.0188,0.024
3.155,-3.91,0.0188,0.020
3.156,-3.59,0.0188,0.016
3.157,-2.66,0.0188,0.013
3.158,-2.50,0.0188,0.011
3.159,-0.94,0.0188,0.008
3.16,0.63,0.0188,0.009
3.161,0.78,0.0188,0.009
3.162,2.34,0.0188,0.010
3.163,3.28,0.0188,0.014
3.164,3.44,0.0188,0.017
3.165,3.75,0.0188,0.021
3.166,3.12,0.0188,0.024
3.167,1.09,0.0184,0.027
3.168,-0.47,0.0178,0.027
3.169,-0.78,0.0178,0.026
3.17,-1.25,0.0178,0.025
3.171,-1.56,0.0178,0.024
3.172,-2.50,0.0178,0.022
3.173,-3.44,0.0178,0.019
3.174,-3.13,0.0178,0.015
3.175,-1.56,0.0178,0.013
3.176,-1.09,0.0178,0.012
3.177,-0.31,0.0178,0.010
3.178,1.72,0.0178,0.011
3.179,2.97,0.0178,0.014
3.18,3.75,0.0178,0.017
3.181,4.06,0.0178,0.021
3.182,3.44,0.0178,0.025
3.183,2.50,0.0178,0.028
3.184,0.94,0.0182,0.030
3.185,-0.78,0.0191,0.030
3.186,-1.56,0.0191,0.029
3.187,-1.72,0.0191,0.027
3.188,-2.34,0.0191,0.025
3.189,-3.59,0.0191,0.022
3.19,-3.44,0.0191,0.018
3.191,-2.81,0.0191,0.015
3.192,-2.03,0.0191,0.013
3.193,0.16,0.0191,0.011
3.194,0.78,0.0191,0.013
3.195,1.72,0.0191,0.013
3.196,3.13,0.0191,0.016
3.197,3.44,0.0191,0.019
3.198,2.97,0.0191,0.023
3.199,2.66,0.0191,0.025
3.2,1.88,0.0191,0.028
3.201,0.00,0.0193,0.029
3.202,-0.78,0.0197,0.028
3.203,-1.25,0.0197,0.027
3.204,-2.66,0.0197,0.026
3.205,-4.53,0.0197,0.022
3.206,-3.91,0.0197,0.017
3.207,-2.34,0.0197,0.014
3.208,-2.03,0.0197,0.012
3.209,-1.56,0.0197,0.010
3.21,-0.31,0.0197,0.009
3.211,0.94,0.0197,0.009
3.212,2.34,0.0197,0.011
3.213,3.13,0.0197,0.014
3.214,3.59,0.0197,0.017
3.215,3.75,0.0197,0.021
3.216,2.34,0.0197,0.025
3.217,1.41,0.0197,0.026
3.218,0.63,0.0194,0.028
3.219,-1.09,0.0188,0.027
3.22,-1.88,0.0188,0.025
3.221,-3.12,0.0188,0.023
3.222,-4.22,0.0188,0.019
3.223,-3.44,0.0188,0.015
3.224,-2.19,0.0188,0.012
3.225,-1.72,0.0188,0.011
3.226,-0.94,0.0188,0.009
3.227,0.78,0.0188,0.009
3.228,1.72,0.0188,0.010
3.229,2.19,0.0188,0.012
3.23,2.97,0.0188,0.015
3.231,3.59,0.0188,0.018
3.232,2.50,0.0188,0.022
3.233,2.03,0.0188,0.023
3.234,2.03,0.0188,0.026
3.235,-0.62,0.0189,0.027
3.236,-2.50,0.0191,0.025
3.237,-2.97,0.0191,0.022
3.238,-3.44,0.0191,0.019
3.239,-2.66,0.0191,0.015
3.24,-1.88,0.0191,0.013
3.241,-1.88,0.0191,0.012
3.242,-1.72,0.0191,0.010
3.243,-0.47,0.0191,0.008
3.244,0.00,0.0173,0.009
3.245,0.62,0.0137,0.008
3.246,2.50,0.0137,0.010
3.247,2.50,0.0137,0.013
3.248,2.50,0.0137,0.015
3.249,3.44,0.0137,0.018
3.25,2.50,0.0137,0.022
3.251,0.47,0.0156,0.023
3.252,0.00,0.0194,0.023
3.253,-1.41,0.0194,0.023
3.254,-3.44,0.0194,0.020
3.255,-2.97,0.0194,0.016
3.256,-2.81,0.0194,0.014
3.257,-3.44,0.0194,0.011
3.258,-2.19,0.0194,0.007
3.259,-1.72,0.0194,0.006
3.26,-0.78,0.0194,0.004
3.261,1.56,0.0194,0.005
3.262,2.81,0.0194,0.007
3.263,3.44,0.0194,0.010
3.264,3.12,0.0194,0.014
3.265,2.97,0.0194,0.017
3.266,2.66,0.0194,0.020
3.267,1.72,0.0194,0.022
3.268,-0.16,0.0197,0.023
3.269,-1.56,0.0203,0.022
3.27,-2.50,0.0203,0.020
3.271,-2.66,0.0203,0.017
3.272,-2.50,0.0203,0.015
3.273,-3.12,0.0203,0.012
3.274,-2.81,0.0203,0.008
3.275,-2.81,0.0203,0.006
3.276,-1.41,0.0203,0.003
3.277,0.94,0.0203,0.003
3.278,2.03,0.0203,0.005
3.279,2.34,0.0203,0.007
3.28,3.75,0.0203,0.009
3.281,3.44,0.0203,0.015
3.282,2.34,0.0203,0.016
3.283,2.97,0.0203,0.019
3.284,1.56,0.0203,0.022
3.285,-0.31,0.0195,0.022
3.286,-1.09,0.0178,0.022
3.287,-2.34,0.0178,0.020
3.288,-2.50,0.0178,0.017
3.289,-2.19,0.0178,0.015
3.29,-4.06,0.0178,0.013
3.291,-3.44,0.0178,0.007
3.292,-0.94,0.0178,0.006
3.293,-0.31,0.0178,0.005
3.294,1.56,0.0178,0.005
3.295,2.97,0.0178,0.008
3.296,1.87,0.0178,0.011
3.297,1.88,0.0178,0.012
3.298,3.12,0.0178,0.015
3.299,3.13,0.0178,0.018
3.3,2.19,0.0178,0.021
3.301,1.25,0.0178,0.023
3.302,-0.47,0.0186,0.023
3.303,-2.19,0.0203,0.022
3.304,-3.28,0.0203,0.019
3.305,-4.06,0.0203,0.015
3.306,-3.28,0.0203,0.011
3.307,-2.34,0.0203,0.009
3.308,-2.03,0.0203,0.006
3.309,-1.56,0.0203,0.005
3.31,-0.47,0.0203,0.003
3.311,0.47,0.0203,0.004
3.312,1.72,0.0203,0.004
3.313,3.13,0.0203,0.007
3.314,3.91,0.0203,0.010
3.315,3.44,0.0203,0.015
3.316,2.97,0.0203,0.017
3.317,2.34,0.0203,0.021
3.318,-0.16,0.0195,0.022
3.319,-1.09,0.0178,0.021
3.32,-1.88,0.0178,0.020
3.321,-3.12,0.0178,0.017
3.322,-3.28,0.0178,0.013
3.323,-2.03,0.0178,0.010
3.324,-2.19,0.0178,0.009
3.325,-2.50,0.0178,0.006
3.326,-0.62,0.0178,0.004
3.327,-0.16,0.0178,0.005
3.328,0.78,0.0178,0.004
3.329,2.97,0.0178,0.006
3.33,3.44,0.0178,0.010
3.331,2.97,0.0178,0.013
3.332,2.50,0.0178,0.016
3.333,2.03,0.0178,0.018
3.334,1.41,0.0178,0.020
3.335,-0.47,0.0180,0.021
3.336,-1.72,0.0184,0.019
3.337,-2.03,0.0184,0.018
3.338,-2.34,0.0184,0.015
3.339,-3.12,0.0184,0.013
3.34,-3.59,0.0184,0.009
3.341,-2.81,0.0184,0.006
3.342,-1.56,0.0184,0.003
3.343,0.16,0.0184,0.003
3.344,1.88,0.0184,0.003
3.345,2.81,0.0184,0.006
3.346,2.97,0.0184,0.009
3.347,3.28,0.0184,0.012
3.348,3.12,0.0184,0.016
3.349,2.19,0.0184,0.018
3.35,1.25,0.0184,0.020
3.351,0.78,0.0184,0.021
3.352,-0.16,0.0181,0.022
3.353,-1.56,0.0175,0.021
3.354,-2.19,0.0175,0.018
3.355,-3.28,0.0175,0.016
3.356,-3.59,0.0175,0.012
3.357,-2.50,0.0175,0.009
3.358,-2.19,0.0175,0.007
3.359,-1.41,0.0175,0.005
3.36,0.47,0.0175,0.004
3.361,1.25,0.0175,0.006
3.362,2.34,0.0175,0.007
3.363,3.44,0.0175,0.010
3.364,2.66,0.0175,0.013
3.365,2.50,0.0175,0.016
3.366,2.19,0.0175,0.018
3.367,1.56,0.0175,0.020
3.368,0.16,0.0182,0.022
3.369,-0.78,0.0197,0.020
3.37,-1.72,0.0197,0.020
3.371,-2.81,0.0197,0.017
3.372,-2.50,0.0197,0.014
3.373,-2.81,0.0197,0.012
3.374,-2.81,0.0197,0.009
3.375,-2.03,0.0197,0.006
3.376,-0.94,0.0197,0.005
3.377,0.16,0.0197,0.004
3.378,1.72,0.0197,0.005
3.379,3.44,0.0197,0.008
3.38,3.75,0.0197,0.012
3.381,3.28,0.0197,0.015
3.382,3.59,0.0197,0.018
3.383,2.81,0.0197,0.022
3.384,1.72,0.0197,0.024
3.385,0.00,0.0196,0.026
3.386,-2.50,0.0194,0.024
3.387,-2.81,0.0194,0.021
3.388,-2.03,0.0194,0.018
3.389,-2.34,0.0194,0.017
3.39,-2.50,0.0194,0.014
3.391,-2.19,0.0194,0.012
3.392,-2.34,0.0194,0.009
3.393,-1.41,0.0194,0.007
3.394,1.09,0.0194,0.007
3.395,1.88,0.0194,0.009
3.396,2.66,0.0194,0.010
3.397,3.75,0.0194,0.015
3.398,2.50,0.0194,0.018
3.399,2.50,0.0194,0.020
3.4,2.66,0.0194,0.023
3.401,1.25,0.0194,0.025
3.402,-0.94,0.0191,0.025
3.403,-2.03,0.0184,0.023
3.404,-2.66,0.0184,0.021
3.405,-3.91,0.0184,0.018
3.406,-2.81,0.0184,0.013
3.407,-2.19,0.0184,0.012
3.408,-2.19,0.0184,0.009
3.409,-1.09,0.0184,0.008
3.41,0.16,0.0184,0.007
3.411,1.72,0.0184,0.008
3.412,2.66,0.0184,0.010
3.413,3.12,0.0184,0.013
3.414,2.34,0.0184,0.017
3.415,1.88,0.0184,0.018
3.416,2.19,0.0184,0.020
3.417,1.56,0.0184,0.022
3.418,0.31,0.0182,0.023
3.419,-1.09,0.0178,0.023
3.42,-1.72,0.0178,0.021
3.421,-2.19,0.0178,0.020
3.422,-3.44,0.0178,0.017
3.423,-3.75,0.0178,0.013
3.424,-2.34,0.0178,0.009
3.425,-1.25,0.0178,0.008
3.426,-1.25,0.0178,0.007
3.427,0.16,0.0178,0.006
3.428,0.94,0.0178,0.007
3.429,1.72,0.0178,0.007
3.43,3.59,0.0178,0.011
3.431,3.91,0.0178,0.015
3.432,2.97,0.0178,0.018
3.433,2.34,0.0178,0.021
3.434,2.34,0.0178,0.023
3.435,-0.31,0.0186,0.025
3.436,-2.19,0.0203,0.022
3.437,-1.88,0.0203,0.021
3.438,-3.28,0.0203,0.019
3.439,-3.44,0.0203,0.014
3.44,-2.66,0.0203,0.012
3.441,-2.81,0.0203,0.009
3.442,-2.03,0.0203,0.006
3.443,-0.63,0.0203,0.005
3.444,0.63,0.0203,0.005
3.445,1.41,0.0203,0.006
3.446,2.50,0.0203,0.008
3.447,2.97,0.0203,0.011
3.448,2.66,0.0203,0.014
3.449,3.12,0.0203,0.017
3.45,2.66,0.0203,0.020
3.451,1.41,0.0203,0.022
3.452,0.00,0.0194,0.023
3.453,-1.72,0.0175,0.022
3.454,-2.50,0.0175,0.019
3.455,-2.50,0.0175,0.017
3.456,-3.13,0.0175,0.014
3.457,-2.81,0.0175,0.011
3.458,-1.56,0.0175,0.009
3.459,-1.72,0.0175,0.007
3.46,-1.09,0.0175,0.005
3.461,0.47,0.0175,0.005
3.462,2.34,0.0175,0.006
3.463,3.44,0.0175,0.010
3.464,4.22,0.0175,0.013
3.465,4.22,0.0175,0.018
3.466,2.03,0.0175,0.022
3.467,1.88,0.0175,0.022
3.468,0.94,0.0186,0.025
3.469,-1.41,0.0209,0.024
3.47,-1.72,0.0209,0.022
3.471,-2.19,0.0209,0.021
3.472,-3.28,0.0209,0.018
3.473,-3.28,0.0209,0.014
3.474,-2.19,0.0209,0.012
3.475,-2.19,0.0209,0.010
3.476,-1.09,0.0209,0.007
3.477,1.56,0.0209,0.008
3.478,2.34,0.0209,0.010
3.479,2.34,0.0209,0.013
3.48,3.91,0.0209,0.015
3.481,3.91,0.0209,0.020
3.482,2.97,0.0209,0.023
3.483,2.66,0.0209,0.026
3.484,1.09,0.0209,0.028
3.485,-0.47,0.0202,0.028
3.486,-1.88,0.0188,0.027
3.487,-2.81,0.0188,0.025
3.488,-3.28,0.0188,0.022
3.489,-2.97,0.0188,0.018
3.49,-2.34,0.0188,0.016
3.491,-2.34,0.0188,0.013
3.492,-1.56,0.0188,0.011
3.493,-0.62,0.0188,0.010
3.494,0.00,0.0188,0.010
3.495,1.56,0.0188,0.010
3.496,3.12,0.0188,0.013
3.497,2.81,0.0188,0.017
3.498,2.66,0.0188,0.018
3.499,2.97,0.0188,0.022
3.5,1.88,0.0188,0.024
3.501,1.09,0.0188,0.026
3.502,0.31,0.0190,0.027
3.503,-1.09,0.0194,0.026
3.504,-3.12,0.0194,0.024
3.505,-3.91,0.0194,0.020
3.506,-3.59,0.0194,0.017
3.507,-2.34,0.0194,0.013
3.508,-1.72,0.0194,0.012
3.509,-1.72,0.0194,0.009
3.51,0.31,0.0194,0.008
3.511,1.41,0.0194,0.010
3.512,2.66,0.0194,0.011
3.513,3.59,0.0194,0.015
3.514,3.59,0.0194,0.018
3.515,2.66,0.0194,0.022
3.516,2.66,0.0194,0.024
3.517,3.12,0.0194,0.028
3.518,0.78,0.0200,0.030
3.519,-0.94,0.0212,0.029
3.52,-2.50,0.0212,0.028
3.521,-3.75,0.0212,0.024
3.522,-3.59,0.0212,0.021
3.523,-2.81,0.0212,0.017
3.524,-2.97,0.0212,0.015
3.525,-2.66,0.0212,0.011
3.526,-1.25,0.0212,0.010
3.527,0.62,0.0212,0.009
3.528,2.34,0.0212,0.011
3.529,2.81,0.0212,0.013
3.53,3.44,0.0212,0.017
3.531,3.28,0.0212,0.020
3.532,3.59,0.0212,0.023
3.533,2.19,0.0212,0.028
3.534,0.31,0.0212,0.028
3.535,0.31,0.0208,0.028
3.536,-1.41,0.0200,0.028
3.537,-3.44,0.0200,0.025
3.538,-3.44,0.0200,0.021
3.539,-3.44,0.0200,0.018
3.54,-3.75,0.0200,0.014
3.541,-2.34,0.0200,0.011
3.542,-0.78,0.0200,0.010
3.543,-0.78,0.0200,0.009
3.544,-0.31,0.0200,0.008
3.545,1.25,0.0200,0.009
3.546,2.34,0.0200,0.011
3.547,3.59,0.0200,0.013
3.548,3.12,0.0200,0.018
3.549,2.50,0.0200,0.020
3.55,2.81,0.0200,0.023
3.551,1.09,0.0203,0.025
3.552,-1.25,0.0209,0.025
3.553,-2.66,0.0209,0.023
3.554,-3.13,0.0209,0.020
3.555,-3.44,0.0209,0.017
3.556,-3.75,0.0209,0.013
3.557,-2.81,0.0209,0.009
3.558,-1.87,0.0209,0.007
3.559,-1.41,0.0209,0.005
3.56,0.31,0.0209,0.004
3.561,1.41,0.0209,0.006
3.562,2.03,0.0209,0.007
3.563,3.28,0.0209,0.010
3.564,2.81,0.0209,0.014
3.565,2.81,0.0209,0.016
3.566,2.81,0.0209,0.019
3.567,1.88,0.0209,0.021
3.568,0.63,0.0201,0.023
3.569,-0.63,0.0184,0.022
3.57,-1.88,0.0184,0.022
3.571,-3.12,0.0184,0.019
3.572,-2.97,0.0184,0.016
3.573,-3.28,0.0184,0.013
3.574,-3.44,0.0184,0.009
3.575,-1.72,0.0184,0.006
3.576,-0.62,0.0184,0.006
3.577,0.47,0.0184,0.005
3.578,2.03,0.0184,0.007
3.579,2.34,0.0184,0.009
3.58,2.66,0.0184,0.011
3.581,3.44,0.0184,0.014
3.582,3.44,0.0184,0.018
3.583,2.03,0.0184,0.021
3.584,1.41,0.0184,0.022
3.585,0.78,0.0185,0.024
3.586,-2.03,0.0188,0.024
3.587,-3.12,0.0188,0.020
3.588,-2.66,0.0188,0.018
3.589,-3.44,0.0188,0.014
3.59,-2.81,0.0188,0.011
3.591,-1.72,0.0188,0.009
3.592,-1.88,0.0188,0.007
3.593,-0.78,0.0188,0.005
3.594,1.41,0.0188,0.006
3.595,1.56,0.0188,0.008
3.596,1.56,0.0188,0.009
3.597,3.44,0.0188,0.011
3.598,3.59,0.0188,0.016
3.599,2.66,0.0188,0.018
3.6,2.81,0.0188,0.021
3.601,0.94,0.0192,0.024
3.602,-0.78,0.0200,0.023
3.603,-1.09,0.0200,0.022
3.604,-2.19,0.0200,0.021
3.605,-3.91,0.0200,0.018
3.606,-3.91,0.0200,0.013
3.607,-3.28,0.0200,0.010
3.608,-2.81,0.0200,0.006
3.609,-1.25,0.0200,0.004
3.61,-0.31,0.0200,0.004
3.611,0.63,0.0200,0.004
3.612,2.34,0.0200,0.005
3.613,3.28,0.0200,0.008
3.614,2.97,0.0200,0.012
3.615,3.75,0.0200,0.014
3.616,3.44,0.0200,0.019
3.617,1.09,0.0200,0.021
3.618,0.16,0.0200,0.021
3.619,-1.09,0.0205,0.022
3.62,-2.03,0.0216,0.019
3.621,-2.34,0.0216,0.018
3.622,-3.75,0.0216,0.014
3.623,-3.91,0.0216,0.010
3.624,-3.28,0.0216,0.007
3.625,-2.50,0.0216,0.003
3.626,-1.72,0.0216,0.002
3.627,0.00,0.0216,0.000
3.628,1.87,0.0216,0.002
3.629,1.87,0.0216,0.004
3.63,2.81,0.0216,0.005
3.631,3.91,0.0216,0.009
3.632,3.28,0.0216,0.013
3.633,2.34,0.0216,0.016
3.634,1.88,0.0216,0.018
3.635,0.63,0.0201,0.020
3.636,-0.63,0.0172,0.019
3.637,-0.78,0.0172,0.018
3.638,-3.12,0.0172,0.018
3.639,-3.91,0.0172,0.012
3.64,-2.66,0.0172,0.010
3.641,-3.28,0.0172,0.007
3.642,-2.19,0.0172,0.003
3.643,-0.31,0.0172,0.003
3.644,0.47,0.0172,0.003
3.645,2.19,0.0172,0.003
3.646,3.28,0.0172,0.007
3.647,3.12,0.0172,0.010
3.648,2.97,0.0172,0.013
3.649,2.50,0.0172,0.016
3.65,1.88,0.0172,0.018
3.651,1.25,0.0172,0.020
3.652,0.31,0.0176,0.021
3.653,-2.19,0.0184,0.020
3.654,-3.28,0.0184,0.016
3.655,-2.66,0.0184,0.014
3.656,-2.50,0.0184,0.011
3.657,-2.66,0.0184,0.009
3.658,-2.34,0.0184,0.006
3.659,-1.56,0.0184,0.004
3.66,-0.94,0.0184,0.003
3.661,0.31,0.0184,0.002
3.662,1.25,0.0184,0.003
3.663,2.50,0.0184,0.005
3.664,3.28,0.0184,0.008
3.665,2.97,0.0184,0.011
3.666,2.97,0.0184,0.014
3.667,2.34,0.0184,0.017
3.668,1.09,0.0184,0.019
3.669,-1.25,0.0186,0.019
3.67,-2.97,0.0191,0.016
3.671,-1.72,0.0191,0.013
3.672,-2.50,0.0191,0.013
3.673,-3.75,0.0191,0.008
3.674,-2.34,0.0191,0.005
3.675,-2.34,0.0191,0.004
3.676,-1.72,0.0191,0.001
3.677,0.31,0.0191,0.000
3.678,1.25,0.0191,0.001
3.679,2.19,0.0191,0.003
3.68,3.44,0.0191,0.006
3.681,3.44,0.0191,0.010
3.682,2.50,0.0191,0.013
3.683,2.19,0.0191,0.015
3.684,1.09,0.0188,0.017
3.685,-0.63,0.0181,0.017
3.686,-0.63,0.0181,0.016
3.687,-1.25,0.0181,0.016
3.688,-3.12,0.0181,0.013
3.689,-3.44,0.0181,0.009
3.69,-3.75,0.0181,0.006
3.691,-3.28,0.0181,0.002
3.692,-1.25,0.0181,-0.000
3.693,-0.47,0.0181,-0.001
3.694,-0.31,0.0181,-0.001
3.695,2.34,0.0181,-0.001
3.696,4.37,0.0181,0.003
3.697,3.28,0.0181,0.007
3.698,2.81,0.0181,0.010
3.699,2.34,0.0181,0.013
3.7,1.56,0.0181,0.015
3.701,1.87,0.0181,0.016
3.702,0.78,0.0185,0.018
3.703,-1.09,0.0194,0.018
3.704,-2.03,0.0194,0.016
3.705,-2.81,0.0194,0.014
3.706,-3.12,0.0194,0.011
3.707,-3.59,0.0194,0.007
3.708,-2.81,0.0194,0.003
3.709,-1.72,0.0194,0.002
3.71,0.63,0.0194,0.000
3.711,2.50,0.0194,0.003
3.712,1.87,0.0194,0.005
3.713,3.13,0.0194,0.007
3.714,3.44,0.0194,0.011
3.715,2.34,0.0194,0.014
3.716,2.81,0.0194,0.016
3.717,2.50,0.0194,0.019
3.718,0.63,0.0193,0.021
3.719,-0.94,0.0191,0.021
3.72,-1.72,0.0191,0.019
3.721,-2.97,0.0191,0.017
3.722,-3.59,0.0191,0.013
3.723,-3.59,0.0191,0.010
3.724,-3.44,0.0191,0.006
3.725,-2.03,0.0191,0.003
3.726,-0.63,0.0191,0.002
3.727,0.47,0.0191,0.002
3.728,1.41,0.0191,0.003
3.729,2.50,0.0191,0.005
3.73,3.12,0.0191,0.008
3.731,3.75,0.0191,0.011
3.732,3.59,0.0191,0.015
3.733,3.28,0.0191,0.018
3.734,1.88,0.0193,0.022
3.735,-0.47,0.0197,0.022
3.736,-0.62,0.0197,0.021
3.737,-1.88,0.0197,0.021
3.738,-3.13,0.0197,0.017
3.739,-3.13,0.0197,0.014
3.74,-3.59,0.0197,0.011
3.741,-2.97,0.0197,0.007
3.742,-1.72,0.0197,0.005
3.743,-1.41,0.0197,0.004
3.744,0.00,0.0197,0.002
3.745,1.72,0.0197,0.004
3.746,1.72,0.0197,0.006
3.747,2.97,0.0197,0.007
3.748,4.06,0.0197,0.012
3.749,3.28,0.0197,0.015
3.75,2.34,0.0197,0.018
3.751,0.94,0.0193,0.020
3.752,-1.56,0.0184,0.020
3.753,-2.19,0.0184,0.017
3.754,-2.03,0.0184,0.016
3.755,-2.50,0.0184,0.013
3.756,-2.34,0.0184,0.011
3.757,-2.34,0.0184,0.008
3.758,-2.19,0.0184,0.006
3.759,-1.25,0.0184,0.004
3.76,0.00,0.0184,0.003
3.761,1.09,0.0184,0.004
3.762,2.19,0.0184,0.006
3.763,3.44,0.0184,0.008
3.764,4.06,0.0184,0.013
3.765,2.97,0.0184,0.016
3.766,2.81,0.0184,0.018
3.767,2.03,0.0184,0.022
3.768,-0.62,0.0178,0.022
3.769,-0.94,0.0166,0.021
3.77,-0.31,0.0166,0.021
3.771,-1.72,0.0166,0.020
3.772,-2.81,0.0166,0.017
3.773,-3.75,0.0166,0.014
3.774,-3.44,0.0166,0.010
3.775,-1.72,0.0166,0.007
3.776,-0.78,0.0166,0.006
3.777,0.00,0.0166,0.006
3.778,1.56,0.0166,0.006
3.779,2.81,0.0166,0.009
3.78,2.34,0.0166,0.012
3.781,3.12,0.0166,0.014
3.782,3.59,0.0166,0.018
3.783,1.88,0.0166,0.021
3.784,1.09,0.0166,0.022
3.785,0.63,0.0173,0.023
3.786,-0.94,0.0188,0.023
3.787,-2.50,0.0188,0.021
3.788,-2.97,0.0188,0.018
3.789,-3.91,0.0188,0.015
3.79,-3.91,0.0188,0.010
3.791,-1.72,0.0188,0.007
3.792,-1.41,0.0188,0.007
3.793,-1.25,0.0188,0.005
3.794,0.62,0.0188,0.004
3.795,1.25,0.0188,0.006
3.796,2.34,0.0188,0.007
3.797,3.75,0.0188,0.011
3.798,2.81,0.0188,0.014
3.799,2.03,0.0188,0.016
3.8,1.88,0.0188,0.018
3.801,1.56,0.0188,0.020
3.802,-0.16,0.0192,0.022
3.803,-1.56,0.0200,0.020
3.804,-3.28,0.0200,0.018
3.805,-4.84,0.0200,0.013
3.806,-3.44,0.0200,0.009
3.807,-2.66,0.0200,0.006
3.808,-2.34,0.0200,0.003
3.809,-0.94,0.0200,0.002
3.81,0.47,0.0200,0.002
3.811,0.63,0.0200,0.003
3.812,1.41,0.0200,0.003
3.813,2.66,0.0200,0.005
3.814,3.28,0.0200,0.008
3.815,3.28,0.0200,0.012
3.816,2.97,0.0200,0.015
3.817,1.87,0.0200,0.018
3.818,0.31,0.0193,0.018
3.819,-0.62,0.0178,0.018
3.82,-2.03,0.0178,0.017
3.821,-2.19,0.0178,0.014
3.822,-1.88,0.0178,0.013
3.823,-2.81,0.0178,0.011
3.824,-3.12,0.0178,0.007
3.825,-1.41,0.0178,0.004
3.826,-1.09,0.0178,0.004
3.827,-0.78,0.0178,0.002
3.828,1.25,0.0178,0.003
3.829,1.87,0.0178,0.005
3.83,3.75,0.0178,0.007
3.831,4.69,0.0178,0.012
3.832,2.34,0.0178,0.016
3.833,2.03,0.0178,0.017
3.834,2.97,0.0178,0.020
3.835,0.78,0.0176,0.023
3.836,-1.72,0.0172,0.022
3.837,-1.88,0.0172,0.019
3.838,-2.66,0.0172,0.018
3.839,-3.44,0.0172,0.014
3.84,-2.50,0.0172,0.011
3.841,-2.50,0.0172,0.009
3.842,-1.72,0.0172,0.006
3.843,-0.16,0.0172,0.006
3.844,0.62,0.0172,0.006
3.845,1.09,0.0172,0.007
3.846,1.88,0.0172,0.008
3.847,3.12,0.0172,0.011
3.848,2.81,0.0172,0.014
3.849,2.66,0.0172,0.016
3.85,2.66,0.0172,0.019
3.851,0.78,0.0182,0.022
3.852,-0.31,0.0203,0.021
3.853,-0.63,0.0203,0.021
3.854,-2.97,0.0203,0.020
3.855,-3.59,0.0203,0.015
3.856,-3.59,0.0203,0.013
3.857,-4.37,0.0203,0.008
3.858,-2.81,0.0203,0.004
3.859,-1.25,0.0203,0.002
3.86,-0.47,0.0203,0.001
3.861,1.25,0.0203,0.001
3.862,2.81,0.0203,0.004
3.863,2.66,0.0203,0.007
3.864,2.81,0.0203,0.009
3.865,3.91,0.0203,0.013
3.866,3.28,0.0203,0.017
3.867,0.78,0.0137,0.019
3.868,0.16,0.0006,0.018
3.869,-0.94,0.0068,0.019
3.87,-2.34,0.0191,0.017
3.871,-1.87,0.0191,0.015
3.872,-3.28,0.0191,0.013
3.873,-3.91,0.0191,0.008
3.874,-2.19,0.0191,0.005
3.875,-1.41,0.0191,0.004
3.876,-1.72,0.0191,0.002
3.877,-0.63,0.0191,0.000
3.878,0.78,0.0191,0.001
3.879,2.03,0.0191,0.002
3.88,2.97,0.0191,0.005
3.881,3.13,0.0191,0.008
3.882,3.75,0.0191,0.011
3.883,2.66,0.0191,0.015
3.884,0.78,0.0191,0.017
3.885,-0.47,0.0185,0.017
3.886,-0.94,0.0175,0.016
3.887,-1.72,0.0175,0.015
3.888,-3.44,0.0175,0.012
3.889,-2.97,0.0175,0.008
3.89,-2.97,0.0175,0.006
3.891,-3.12,0.0175,0.002
3.892,-1.41,0.0175,0.000
3.893,-0.31,0.0175,-0.001
3.894,0.00,0.0175,-0.001
3.895,1.25,0.0175,-0.001
3.896,2.81,0.0175,0.002
3.897,3.28,0.0175,0.005
3.898,2.97,0.0175,0.008
3.899,3.28,0.0175,0.011
3.9,2.50,0.0175,0.015
3.901,1.25,0.0175,0.016
3.902,0.47,0.0179,0.018
3.903,-1.25,0.0188,0.017
3.904,-2.19,0.0188,0.015
3.905,-2.81,0.0188,0.013
3.906,-3.44,0.0188,0.009
3.907,-3.75,0.0188,0.006
3.908,-2.81,0.0188,0.002
3.909,-1.56,0.0188,0.000
3.91,-0.47,0.0188,-0.001
3.911,1.41,0.0188,-0.001
3.912,2.03,0.0188,0.002
3.913,2.34,0.0188,0.003
3.914,3.75,0.0188,0.006
3.915,3.75,0.0188,0.011
3.916,2.50,0.0188,0.014
3.917,1.41,0.0188,0.016
3.918,0.47,0.0186,0.017
3.919,-0.94,0.0184,0.017
3.92,-1.41,0.0184,0.015
3.921,-1.88,0.0184,0.014
3.922,-3.28,0.0184,0.011
3.923,-3.44,0.0184,0.007
3.924,-2.97,0.0184,0.004
3.925,-2.97,0.0184,0.001
3.926,-1.56,0.0184,-0.002
3.927,1.09,0.0184,-0.002
3.928,1.41,0.0184,0.000
3.929,2.03,0.0184,0.001
3.93,2.66,0.0184,0.004
3.931,1.87,0.0184,0.006
3.932,2.50,0.0184,0.008
3.933,3.28,0.0184,0.011
3.934,2.81,0.0184,0.015
3.935,0.16,0.0185,0.017
3.936,-0.78,0.0188,0.015
3.937,-1.25,0.0188,0.015
3.938,-3.13,0.0188,0.013
3.939,-3.28,0.0188,0.009
3.94,-3.59,0.0188,0.006
3.941,-2.81,0.0188,0.002
3.942,-0.94,0.0188,0.000
3.943,-1.09,0.0188,0.000
3.944,-0.16,0.0188,-0.002
3.945,1.87,0.0188,-0.000
3.946,2.03,0.0188,0.002
3.947,2.50,0.0188,0.004
3.948,3.59,0.0188,0.007
3.949,3.44,0.0188,0.011
3.95,2.19,0.0188,0.014
3.951,1.41,0.0188,0.015
3.952,0.31,0.0188,0.017
3.953,-1.56,0.0188,0.016
3.954,-2.03,0.0188,0.013
3.955,-2.50,0.0188,0.012
3.956,-3.12,0.0188,0.008
3.957,-2.81,0.0188,0.006
3.958,-2.66,0.0188,0.003
3.959,-2.34,0.0188,0.000
3.96,-0.31,0.0188,-0.002
3.961,1.87,0.0188,-0.000
3.962,2.66,0.0188,0.002
3.963,3.12,0.0188,0.005
3.964,3.59,0.0188,0.008
3.965,3.13,0.0188,0.012
3.966,2.34,0.0188,0.014
3.967,2.03,0.0188,0.017
3.968,0.00,0.0193,0.018
3.969,-0.94,0.0203,0.017
3.97,-0.78,0.0203,0.017
3.971,-3.12,0.0203,0.015
3.972,-4.22,0.0203,0.010
3.973,-3.28,0.0203,0.007
3.974,-2.97,0.0203,0.004
3.975,-2.50,0.0203,0.001
3.976,-1.41,0.0203,-0.001
3.977,-0.31,0.0203,-0.002
3.978,2.19,0.0203,-0.002
3.979,3.91,0.0203,0.003
3.98,2.97,0.0203,0.006
3.981,2.81,0.0203,0.008
3.982,3.28,0.0203,0.012
3.983,2.34,0.0203,0.015
3.984,0.94,0.0203,0.016
3.985,0.63,0.0203,0.017
3.986,-1.09,0.0208,0.018
3.987,-2.66,0.0219,0.015
3.988,-2.81,0.0219,0.012
3.989,-3.28,0.0219,0.009
3.99,-3.75,0.0219,0.006
3.991,-2.97,0.0219,0.002
3.992,-2.19,0.0219,-0.000
3.993,-2.03,0.0219,-0.003
3.994,0.47,0.0219,-0.004
3.995,2.50,0.0219,-0.002
3.996,2.97,0.0219,0.001
3.997,3.75,0.0219,0.004
3.998,3.13,0.0219,0.008
3.999,1.88,0.0219,0.010
4,1.72,0.0219,0.012
4.001,1.41,0.0219,0.014
4.002,-0.31,0.0210,0.015
4.003,-2.03,0.0194,0.013
4.004,-2.50,0.0194,0.011
4.005,-3.12,0.0194,0.008
4.006,-3.12,0.0194,0.004
4.007,-2.81,0.0194,0.002
4.008,-2.81,0.0194,-0.001
4.009,-1.09,0.0194,-0.004
4.01,1.56,0.0194,-0.003
4.011,1.87,0.0194,-0.001
4.012,1.87,0.0194,0.000
4.013,3.28,0.0194,0.003
4.014,2.50,0.0194,0.007
4.015,2.81,0.0194,0.008
4.016,3.75,0.0194,0.013
4.017,2.81,0.0194,0.016
4.018,0.78,0.0181,0.018
4.019,-0.78,0.0156,0.017
4.02,-2.03,0.0156,0.017
4.021,-2.97,0.0156,0.013
4.022,-2.50,0.0156,0.011
4.023,-2.81,0.0156,0.008
4.024,-2.50,0.0156,0.005
4.025,-1.09,0.0156,0.003
4.026,-0.31,0.0156,0.003
4.027,0.31,0.0156,0.003
4.028,1.41,0.0156,0.003
4.029,1.72,0.0156,0.005
4.03,2.19,0.0156,0.007
4.031,2.50,0.0156,0.010
4.032,2.97,0.0156,0.012
4.033,2.50,0.0156,0.016
4.034,1.41,0.0156,0.017
4.035,0.62,0.0171,0.018
4.036,-0.94,0.0200,0.018
4.037,-2.66,0.0200,0.017
4.038,-3.12,0.0200,0.013
4.039,-3.28,0.0200,0.010
4.04,-3.59,0.0200,0.006
4.041,-2.81,0.0200,0.003
4.042,-2.03,0.0200,0.001
4.043,-1.09,0.0200,-0.001
4.044,0.47,0.0200,-0.002
4.045,1.87,0.0200,0.000
4.046,2.66,0.0200,0.002
4.047,3.75,0.0200,0.005
4.048,2.66,0.0200,0.010
4.049,2.81,0.0200,0.011
4.05,2.66,0.0200,0.015
4.051,0.31,0.0191,0.016
4.052,-0.31,0.0172,0.016
4.053,-0.62,0.0172,0.015
4.054,-2.50,0.0172,0.015
4.055,-3.91,0.0172,0.010
4.056,-2.81,0.0172,0.007
4.057,-2.66,0.0172,0.005
4.058,-2.81,0.0172,0.002
4.059,-1.41,0.0172,-0.001
4.06,-0.16,0.0172,-0.001
4.061,0.78,0.0172,-0.001
4.062,2.50,0.0172,0.000
4.063,3.28,0.0172,0.004
4.064,2.97,0.0172,0.007
4.065,2.97,0.0172,0.010
4.066,2.66,0.0172,0.013
4.067,1.41,0.0172,0.015
4.068,0.62,0.0172,0.016
4.069,-0.47,0.0176,0.016
4.07,-2.03,0.0184,0.015
4.071,-2.66,0.0184,0.012
4.072,-2.81,0.0184,0.009
4.073,-3.13,0.0184,0.007
4.074,-2.66,0.0184,0.003
4.075,-1.56,0.0184,0.001
4.076,-1.56,0.0184,0.000
4.077,-0.63,0.0184,-0.002
4.078,1.87,0.0184,-0.001
4.079,2.66,0.0184,0.002
4.08,2.81,0.0184,0.004
4.081,3.28,0.0184,0.007
4.082,2.97,0.0184,0.011
4.083,2.97,0.0184,0.013
4.084,2.34,0.0184,0.017
4.085,0.78,0.0178,0.018
4.086,-0.78,0.0166,0.018
4.087,-1.25,0.0166,0.017
4.088,-2.81,0.0166,0.016
4.089,-3.59,0.0166,0.011
4.09,-2.66,0.0166,0.008
4.091,-3.13,0.0166,0.006
4.092,-1.72,0.0166,0.002
4.093,-0.16,0.0166,0.002
4.094,0.47,0.0166,0.002
4.095,1.25,0.0166,0.003
4.096,2.50,0.0166,0.004
4.097,3.44,0.0166,0.008
4.098,3.59,0.0166,0.011
4.099,2.81,0.0166,0.015
4.1,1.56,0.0166,0.017
4.101,1.41,0.0166,0.018
4.102,0.47,0.0168,0.020
4.103,-1.41,0.0172,0.019
4.104,-2.34,0.0172,0.017
4.105,-2.81,0.0172,0.015
4.106,-3.91,0.0172,0.011
4.107,-3.28,0.0172,0.007
4.108,-1.87,0.0172,0.005
4.109,-1.09,0.0172,0.003
4.11,0.00,0.0172,0.003
4.111,0.16,0.0172,0.003
4.112,0.94,0.0172,0.003
4.113,2.81,0.0172,0.005
4.114,3.44,0.0172,0.008
4.115,2.03,0.0172,0.012
4.116,1.56,0.0172,0.013
4.117,2.66,0.0172,0.015
4.118,0.78,0.0174,0.018
4.119,-1.41,0.0178,0.017
4.12,-1.25,0.0178,0.015
4.121,-1.87,0.0178,0.014
4.122,-2.66,0.0178,0.011
4.123,-2.81,0.0178,0.009
4.124,-2.97,0.0178,0.006
4.125,-2.81,0.0178,0.003
4.126,-1.41,0.0178,0.000
4.127,0.63,0.0178,0.000
4.128,0.47,0.0178,0.001
4.129,1.87,0.0178,0.001
4.13,4.06,0.0178,0.005
4.131,3.13,0.0178,0.009
4.132,3.44,0.0178,0.011
4.133,2.81,0.0178,0.016
4.134,0.47,0.0123,0.017
4.135,-0.63,0.0012,0.017
4.136,-0.31,0.0012,0.016
4.137,-1.56,0.0077,0.016
4.138,-3.75,0.0206,0.013
4.139,-3.75,0.0206,0.009
4.14,-4.22,0.0206,0.005
4.141,-3.91,0.0206,0.000
4.142,-1.87,0.0206,-0.003
4.143,-0.78,0.0206,-0.003
4.144,0.16,0.0206,-0.004
4.145,2.03,0.0206,-0.003
4.146,3.12,0.0206,-0.000
4.147,2.81,0.0206,0.003
4.148,3.59,0.0206,0.005
4.149,3.75,0.0206,0.010
4.15,1.87,0.0206,0.013
4.151,0.94,0.0206,0.014
4.152,-0.16,0.0199,0.015
4.153,-1.09,0.0184,0.014
4.154,-1.88,0.0184,0.013
4.155,-2.97,0.0184,0.010
4.156,-3.91,0.0184,0.007
4.157,-3.44,0.0184,0.002
4.158,-2.50,0.0184,-0.000
4.159,-1.72,0.0184,-0.003
4.16,0.47,0.0184,-0.004
4.161,1.09,0.0184,-0.002
4.162,1.25,0.0184,-0.002
4.163,3.44,0.0184,0.001
4.164,4.06,0.0184,0.005
4.165,3.12,0.0184,0.009
4.166,2.81,0.0184,0.012
4.167,2.66,0.0184,0.014
4.168,0.47,0.0190,0.017
4.169,-0.94,0.0200,0.015
4.17,-1.56,0.0200,0.015
4.171,-3.59,0.0200,0.012
4.172,-3.59,0.0200,0.008
4.173,-2.66,0.0200,0.005
4.174,-2.66,0.0200,0.003
4.175,-2.50,0.0200,-0.000
4.176,-1.41,0.0200,-0.003
4.177,0.00,0.0200,-0.003
4.178,1.41,0.0200,-0.003
4.179,3.12,0.0200,-0.000
4.18,3.59,0.0200,0.004
4.181,3.75,0.0200,0.007
4.182,4.22,0.0200,0.011
4.183,2.81,0.0200,0.015
4.184,0.94,0.0200,0.017
4.185,0.00,0.0197,0.017
4.186,-1.56,0.0191,0.017
4.187,-2.66,0.0191,0.014
4.188,-2.66,0.0191,0.012
4.189,-2.66,0.0191,0.009
4.19,-2.66,0.0191,0.006
4.191,-2.66,0.0191,0.003
4.192,-1.41,0.0191,0.001
4.193,-1.41,0.0191,0.001
4.194,-0.63,0.0191,-0.002
4.195,1.72,0.0191,-0.001
4.196,2.19,0.0191,0.002
4.197,3.44,0.0191,0.004
4.198,4.37,0.0191,0.008
4.199,3.44,0.0191,0.013
4.2,2.03,0.0191,0.015
4.201,0.78,0.0191,0.017
4.202,-0.31,0.0190,0.017
4.203,-1.56,0.0188,0.016
4.204,-2.50,0.0188,0.014
4.205,-3.28,0.0188,0.011
4.206,-3.28,0.0188,0.007
4.207,-2.19,0.0188,0.004
4.208,-2.34,0.0188,0.003
4.209,-2.03,0.0188,-0.000
4.21,-0.78,0.0188,-0.001
4.211,0.31,0.0188,-0.002
4.212,1.41,0.0188,-0.001
4.213,3.59,0.0188,0.001
4.214,4.84,0.0188,0.007
4.215,3.44,0.0188,0.011
4.216,2.50,0.0188,0.013
4.217,1.56,0.0188,0.016
4.218,0.16,0.0185,0.017
4.219,-0.94,0.0181,0.016
4.22,-1.56,0.0181,0.015
4.221,-2.34,0.0181,0.013
4.222,-2.81,0.0181,0.010
4.223,-3.12,0.0181,0.007
4.224,-3.28,0.0181,0.004
4.225,-2.19,0.0181,0.001
4.226,-1.09,0.0181,-0.001
4.227,-0.31,0.0181,-0.002
4.228,1.56,0.0181,-0.001
4.229,2.97,0.0181,0.002
4.23,3.12,0.0181,0.005
4.231,3.44,0.0181,0.008
4.232,2.81,0.0181,0.012
4.233,1.41,0.0181,0.013
4.234,1.72,0.0181,0.014
4.235,0.78,0.0194,0.017
4.236,-1.41,0.0219,0.016
4.237,-2.66,0.0219,0.014
4.238,-3.75,0.0219,0.011
4.239,-4.22,0.0219,0.007
4.24,-3.75,0.0219,0.002
4.241,-2.66,0.0219,-0.001
4.242,-2.03,0.0219,-0.003
4.243,-0.78,0.0219,-0.005
4.244,1.25,0.0219,-0.005
4.245,1.25,0.0219,-0.003
4.246,2.34,0.0219,-0.002
4.247,3.91,0.0219,0.002
4.248,3.44,0.0219,0.006
4.249,2.97,0.0219,0.009
4.25,2.81,0.0219,0.012
4.251,1.56,0.0205,0.015
4.252,-0.62,0.0178,0.015
4.253,-1.09,0.0178,0.013
4.254,-1.88,0.0178,0.013
4.255,-3.91,0.0178,0.010
4.256,-3.12,0.0178,0.005
4.257,-2.50,0.0178,0.003
4.258,-1.87,0.0178,-0.000
4.259,-0.94,0.0178,-0.000
4.26,-1.09,0.0178,-0.002
4.261,0.31,0.0178,-0.003
4.262,1.87,0.0178,-0.002
4.263,3.59,0.0178,0.001
4.264,3.12,0.0178,0.006
4.265,2.34,0.0178,0.007
4.266,2.97,0.0178,0.010
4.267,2.50,0.0178,0.013
4.268,1.41,0.0178,0.015
4.269,-0.31,0.0180,0.016
4.27,-1.41,0.0184,0.015
4.271,-2.66,0.0184,0.013
4.272,-3.59,0.0184,0.009
4.273,-2.50,0.0184,0.006
4.274,-1.88,0.0184,0.004
4.275,-2.50,0.0184,0.003
4.276,-2.34,0.0184,-0.001
4.277,-0.63,0.0184,-0.002
4.278,1.56,0.0184,-0.002
4.279,2.66,0.0184,0.001
4.28,2.66,0.0184,0.003
4.281,3.28,0.0184,0.006
4.282,2.97,0.0184,0.010
4.283,2.34,0.0184,0.012
4.284,1.72,0.0184,0.015
4.285,-0.31,0.0185,0.016
4.286,-1.56,0.0188,0.014
4.287,-1.72,0.0188,0.013
4.288,-2.81,0.0188,0.011
4.289,-4.06,0.0188,0.007
4.29,-3.12,0.0188,0.003
4.291,-1.87,0.0188,0.001
4.292,-1.87,0.0188,-0.001
4.293,-0.94,0.0188,-0.003
4.294,0.94,0.0188,-0.003
4.295,1.25,0.0188,-0.001
4.296,2.34,0.0188,-0.001
4.297,3.91,0.0188,0.003
4.298,3.28,0.0188,0.007
4.299,3.12,0.0188,0.010
4.3,3.28,0.0188,0.013
4.301,0.94,0.0184,0.017
4.302,-0.94,0.0178,0.015
4.303,-0.94,0.0178,0.015
4.304,-1.88,0.0178,0.013
4.305,-3.44,0.0178,0.011
4.306,-3.12,0.0178,0.007
4.307,-2.34,0.0178,0.005
4.308,-2.03,0.0178,0.002
4.309,-1.09,0.0178,0.001
4.31,-0.94,0.0178,-0.000
4.311,0.31,0.0178,-0.001
4.312,2.03,0.0178,0.000
4.313,2.50,0.0178,0.003
4.314,3.75,0.0178,0.005
4.315,3.91,0.0178,0.010
4.316,2.66,0.0178,0.013
4.317,2.03,0.0178,0.016
4.318,0.78,0.0185,0.017
4.319,-1.41,0.0200,0.017
4.32,-2.50,0.0200,0.014
4.321,-2.66,0.0200,0.012
4.322,-3.59,0.0200,0.009
4.323,-3.44,0.0200,0.005
4.324,-1.72,0.0200,0.002
4.325,-1.56,0.0200,0.002
4.326,-2.19,0.0200,-0.001
4.327,0.47,0.0200,-0.003
4.328,1.41,0.0200,0.000
4.329,1.41,0.0200,0.000
4.33,2.97,0.0200,0.003
4.331,3.44,0.0200,0.006
4.332,3.12,0.0200,0.010
4.333,2.81,0.0200,0.012
4.334,2.19,0.0200,0.015
4.335,0.00,0.0202,0.017
4.336,-1.41,0.0206,0.015
4.337,-2.03,0.0206,0.014
4.338,-2.81,0.0206,0.011
4.339,-3.13,0.0206,0.008
4.34,-2.81,0.0206,0.005
4.341,-2.97,0.0206,0.003
4.342,-2.81,0.0206,-0.001
4.343,-1.56,0.0206,-0.003
4.344,0.31,0.0206,-0.004
4.345,2.03,0.0206,-0.003
4.346,3.28,0.0206,0.000
4.347,3.75,0.0206,0.004
4.348,3.13,0.0206,0.007
4.349,3.28,0.0206,0.010
4.35,2.34,0.0206,0.014
4.351,1.09,0.0206,0.015
4.352,0.31,0.0200,0.016
4.353,-1.41,0.0187,0.016
4.354,-2.19,0.0187,0.013
4.355,-2.50,0.0187,0.011
4.356,-3.75,0.0187,0.008
4.357,-3.75,0.0187,0.004
4.358,-2.34,0.0187,0.001
4.359,-1.72,0.0187,-0.001
4.36,0.00,0.0187,-0.003
4.361,1.56,0.0187,-0.001
4.362,1.87,0.0187,0.001
4.363,3.12,0.0187,0.003
4.364,3.75,0.0187,0.007
4.365,2.81,0.0187,0.010
4.366,2.19,0.0187,0.013
4.367,2.19,0.0187,0.015
4.368,0.62,0.0184,0.017
4.369,-0.47,0.0178,0.016
4.37,-0.78,0.0178,0.016
4.371,-2.66,0.0178,0.014
4.372,-4.06,0.0178,0.011
4.373,-3.12,0.0178,0.006
4.374,-2.03,0.0178,0.004
4.375,-2.19,0.0178,0.002
4.376,-1.56,0.0178,0.000
4.377,0.31,0.0178,-0.001
4.378,1.09,0.0178,0.001
4.379,2.34,0.0178,0.001
4.38,3.75,0.0178,0.005
4.381,3.28,0.0178,0.009
4.382,2.50,0.0178,0.012
4.383,1.88,0.0178,0.014
4.384,1.56,0.0178,0.016
4.385,0.63,0.0178,0.017
4.386,-0.63,0.0178,0.017
4.387,-2.34,0.0178,0.016
4.388,-2.97,0.0178,0.012
4.389,-2.50,0.0178,0.010
4.39,-3.12,0.0178,0.007
4.391,-3.44,0.0178,0.003
4.392,-1.87,0.0178,0.000
4.393,-0.63,0.0178,-0.000
4.394,0.63,0.0178,-0.001
4.395,2.34,0.0178,0.001
4.396,2.03,0.0178,0.004
4.397,2.66,0.0178,0.005
4.398,3.91,0.0178,0.009
4.399,2.66,0.0178,0.013
4.4,1.87,0.0178,0.014
4.401,1.09,0.0179,0.017
4.402,-0.16,0.0181,0.017
4.403,-1.41,0.0181,0.016
4.404,-1.56,0.0181,0.014
4.405,-2.66,0.0181,0.013
4.406,-3.75,0.0181,0.008
4.407,-2.03,0.0181,0.006
4.408,-2.34,0.0181,0.004
4.409,-2.66,0.0181,0.001
4.41,-1.25,0.0181,-0.001
4.411,0.63,0.0181,-0.002
4.412,2.19,0.0181,0.000
4.413,2.97,0.0181,0.003
4.414,3.44,0.0181,0.006
4.415,3.12,0.0181,0.010
4.416,2.66,0.0181,0.013
4.417,2.03,0.0181,0.015
4.418,0.16,0.0181,0.017
4.419,-1.41,0.0181,0.015
4.42,-1.09,0.0181,0.014
4.421,-1.72,0.0181,0.013
4.422,-2.34,0.0181,0.010
4.423,-2.19,0.0181,0.008
4.424,-3.13,0.0181,0.006
4.425,-2.66,0.0181,0.002
4.426,-1.87,0.0181,0.001
4.427,-1.09,0.0181,-0.002
4.428,0.78,0.0181,-0.002
4.429,2.34,0.0181,0.000
4.43,2.81,0.0181,0.003
4.431,3.59,0.0181,0.006
4.432,4.06,0.0181,0.010
4.433,2.34,0.0181,0.014
4.434,0.78,0.0181,0.015
4.435,1.09,0.0181,0.015
4.436,-0.16,0.0189,0.017
4.437,-2.03,0.0203,0.015
4.438,-2.50,0.0203,0.013
4.439,-3.44,0.0203,0.010
4.44,-3.75,0.0203,0.006
4.441,-3.28,0.0203,0.003
4.442,-2.81,0.0203,-0.000
4.443,-1.25,0.0203,-0.003
4.444,0.94,0.0203,-0.003
4.445,1.56,0.0203,-0.001
4.446,1.87,0.0203,0.000
4.447,2.81,0.0203,0.003
4.448,2.50,0.0203,0.006
4.449,2.34,0.0203,0.007
4.45,2.03,0.0203,0.011
4.451,1.25,0.0203,0.012
4.452,0.00,0.0201,0.013
4.453,-0.78,0.0197,0.012
4.454,-1.72,0.0197,0.012
4.455,-3.59,0.0197,0.008
4.456,-3.44,0.0197,0.004
4.457,-2.97,0.0197,0.001
4.458,-2.50,0.0197,-0.002
4.459,-0.94,0.0197,-0.004
4.46,0.16,0.0197,-0.003
4.461,0.47,0.0197,-0.003
4.462,1.87,0.0197,-0.003
4.463,3.59,0.0197,0.000
4.464,3.44,0.0197,0.005
4.465,2.97,0.0197,0.007
4.466,3.59,0.0197,0.011
4.467,2.66,0.0197,0.014
4.468,0.94,0.0197,0.016
4.469,0.00,0.0193,0.016
4.47,-1.25,0.0184,0.016
4.471,-2.66,0.0184,0.014
4.472,-3.44,0.0184,0.011
4.473,-3.75,0.0184,0.007
4.474,-2.97,0.0184,0.003
4.475,-1.56,0.0184,0.001
4.476,-1.56,0.0184,0.000
4.477,-0.78,0.0184,-0.002
4.478,1.09,0.0184,-0.002
4.479,2.19,0.0184,0.000
4.48,3.44,0.0184,0.003
4.481,3.75,0.0184,0.007
4.482,2.97,0.0184,0.010
4.483,1.87,0.0184,0.013
4.484,1.72,0.0184,0.014
4.485,0.31,0.0182,0.016
4.486,-1.56,0.0178,0.015
4.487,-1.56,0.0178,0.013
4.488,-2.66,0.0178,0.012
4.489,-2.81,0.0178,0.008
4.49,-2.50,0.0178,0.006
4.491,-3.12,0.0178,0.003
4.492,-2.19,0.0178,-0.000
4.493,0.16,0.0178,-0.002
4.494,0.63,0.0178,0.000
4.495,0.78,0.0178,-0.000
4.496,2.34,0.0178,0.002
4.497,3.59,0.0178,0.004
4.498,3.75,0.0178,0.009
4.499,3.12,0.0178,0.012
4.5,1.56,0.0178,0.015
4.501,0.16,0.0178,0.015
4.502,-0.31,0.0178,0.015
4.503,-2.03,0.0178,0.014
4.504,-2.97,0.0178,0.011
4.505,-2.97,0.0178,0.008
4.506,-2.66,0.0178,0.005
4.507,-2.19,0.0178,0.003
4.508,-2.66,0.0178,0.001
4.509,-1.72,0.0178,-0.002
4.51,-0.16,0.0178,-0.003
4.511,0.63,0.0178,-0.003
4.512,2.03,0.0178,-0.001
4.513,3.28,0.0178,0.002
4.514,3.44,0.0178,0.005
4.515,3.28,0.0178,0.008
4.516,2.34,0.0178,0.012
4.517,1.56,0.0178,0.013
4.518,1.56,0.0178,0.015
4.519,-0.31,0.0182,0.016
4.52,-1.87,0.0191,0.014
4.521,-2.50,0.0191,0.013
4.522,-4.22,0.0191,0.009
4.523,-4.22,0.0191,0.004
4.524,-2.19,0.0191,0.001
4.525,-1.87,0.0191,-0.000
4.526,-0.78,0.0191,-0.003
4.527,1.09,0.0191,-0.002
4.528,1.41,0.0191,-0.001
4.529,1.87,0.0191,0.001
4.53,2.97,0.0191,0.003
4.531,2.97,0.0191,0.007
4.532,2.03,0.0191,0.009
4.533,2.34,0.0191,0.011
4.534,2.19,0.0191,0.014
4.535,0.31,0.0191,0.015
4.536,-1.09,0.0191,0.014
4.537,-1.56,0.0191,0.013
4.538,-2.97,0.0191,0.011
4.539,-3.28,0.0191,0.007
4.54,-2.50,0.0191,0.005
4.541,-2.97,0.0191,0.002
4.542,-2.66,0.0191,-0.001
4.543,-1.25,0.0191,-0.003
4.544,0.16,0.0191,-0.004
4.545,1.87,0.0191,-0.003
4.546,2.81,0.0191,0.000
4.547,2.81,0.0191,0.003
4.548,3.12,0.0191,0.006
4.549,3.44,0.0191,0.009
4.55,1.72,0.0191,0.013
4.551,1.41,0.0191,0.013
4.552,1.25,0.0182,0.015
4.553,-1.88,0.0166,0.015
4.554,-2.50,0.0166,0.012
4.555,-2.19,0.0166,0.010
4.556,-3.12,0.0166,0.007
4.557,-3.28,0.0166,0.004
4.558,-1.56,0.0166,0.001
4.559,-0.63,0.0166,0.001
4.56,-0.31,0.0166,-0.001
4.561,0.94,0.0166,0.000
4.562,1.41,0.0166,0.001
4.563,3.12,0.0166,0.003
4.564,4.22,0.0166,0.007
4.565,3.28,0.0166,0.011
4.566,2.34,0.0166,0.014
4.567,2.03,0.0166,0.016
4.568,1.09,0.0176,0.018
4.569,-0.94,0.0197,0.018
4.57,-1.72,0.0197,0.016
4.571,-2.03,0.0197,0.015
4.572,-3.59,0.0197,0.012
4.573,-2.97,0.0197,0.007
4.574,-2.97,0.0197,0.006
4.575,-3.59,0.0197,0.002
4.576,-1.56,0.0197,-0.001
4.577,0.63,0.0197,-0.002
4.578,2.03,0.0197,0.000
4.579,2.50,0.0197,0.003
4.58,3.12,0.0197,0.005
4.581,2.97,0.0197,0.009
4.582,2.34,0.0197,0.011
4.583,2.50,0.0197,0.013
4.584,1.88,0.0197,0.016
4.585,0.16,0.0197,0.017
4.586,-0.63,0.0197,0.017
4.587,-2.34,0.0197,0.016
4.588,-3.91,0.0197,0.012
4.589,-3.12,0.0197,0.008
4.59,-2.97,0.0197,0.006
4.591,-2.81,0.0197,0.002
4.592,-1.87,0.0197,0.000
4.593,-0.94,0.0197,-0.002
4.594,0.63,0.0197,-0.002
4.595,2.03,0.0197,-0.000
4.596,3.12,0.0197,0.002
4.597,3.59,0.0197,0.006
4.598,4.06,0.0197,0.009
4.599,3.28,0.0197,0.014
4.6,1.88,0.0197,0.016
4.601,1.56,0.0197,0.018
4.602,0.16,0.0193,0.019
4.603,-1.25,0.0184,0.018
4.604,-1.87,0.0184,0.017
4.605,-2.81,0.0184,0.014
4.606,-3.75,0.0184,0.011
4.607,-3.12,0.0184,0.007
4.608,-2.66,0.0184,0.005
4.609,-2.03,0.0184,0.002
4.61,0.47,0.0184,0.001
4.611,0.94,0.0184,0.003
4.612,0.94,0.0184,0.003
4.613,3.12,0.0184,0.004
4.614,3.91,0.0184,0.009
4.615,2.66,0.0184,0.012
4.616,2.81,0.0184,0.014
4.617,2.19,0.0184,0.018
4.618,0.00,0.0186,0.018
4.619,-0.16,0.0191,0.018
4.62,-0.63,0.0191,0.018
4.621,-2.34,0.0191,0.017
4.622,-3.59,0.0191,0.013
4.623,-3.44,0.0191,0.009
4.624,-3.13,0.0191,0.007
4.625,-2.19,0.0191,0.003
4.626,-0.63,0.0191,0.002
4.627,0.47,0.0191,0.002
4.628,1.88,0.0191,0.003
4.629,3.13,0.0191,0.006
4.63,3.28,0.0191,0.009
4.631,3.12,0.0191,0.012
4.632,2.97,0.0191,0.016
4.633,2.03,0.0191,0.018
4.634,1.41,0.0191,0.020
4.635,0.78,0.0191,0.021
4.636,-0.78,0.0192,0.021
4.637,-1.41,0.0194,0.019
4.638,-2.19,0.0194,0.018
4.639,-3.28,0.0194,0.015
4.64,-3.28,0.0194,0.012
4.641,-3.28,0.0194,0.008
4.642,-2.66,0.0194,0.005
4.643,-1.72,0.0194,0.003
4.644,-0.31,0.0194,0.002
4.645,1.88,0.0194,0.003
4.646,2.81,0.0194,0.006
4.647,3.59,0.0194,0.008
4.648,3.59,0.0194,0.013
4.649,2.03,0.0194,0.015
4.65,2.19,0.0194,0.017
4.651,1.88,0.0194,0.020
4.652,0.00,0.0199,0.021
4.653,-1.41,0.0209,0.020
4.654,-2.19,0.0209,0.018
4.655,-4.06,0.0209,0.015
4.656,-4.38,0.0209,0.010
4.657,-3.12,0.0209,0.007
4.658,-2.81,0.0209,0.003
4.659,-1.25,0.0209,0.001
4.66,0.63,0.0209,0.001
4.661,0.78,0.0209,0.002
4.662,1.87,0.0209,0.003
4.663,3.44,0.0209,0.006
4.664,3.28,0.0209,0.009
4.665,3.75,0.0209,0.013
4.666,3.28,0.0209,0.017
4.667,2.34,0.0209,0.019
4.668,1.41,0.0209,0.022
4.669,0.31,0.0209,0.022
4.67,-0.94,0.0200,0.022
4.671,-2.66,0.0181,0.020
4.672,-3.75,0.0181,0.017
4.673,-3.75,0.0181,0.013
4.674,-3.12,0.0181,0.009
4.675,-1.72,0.0181,0.006
